S1,S2,S3,S4,S5,S6,S7,S8,Gesture_Class
2.5,-0.375,-1.0,0.125,1.25,6.0,0.625,3.125,3
0.125,-1.375,-2.125,-2.5,1.125,1.25,-1.25,-1.375,3
-5.625,-2.25,-1.0,-1.375,0.625,3.75,-2.625,2.125,0
5.5,0.125,1.625,1.5,-0.25,-7.125,-2.375,0.125,2
1.625,6.25,1.625,1.625,1.125,-3.25,-0.75,0.5,0
-0.875,0.375,1.0,0.75,2.5,-1.5,0.75,-0.25,0
0.5,-0.875,0.0,-1.75,0.5,3.0,-0.875,0.375,0
2.0,-1.625,-1.625,-1.75,-4.0,2.625,-3.375,0.375,3
-0.125,0.5,0.0,0.875,-0.875,-1.5,-1.625,-1.875,2
2.375,1.5,-0.375,-0.375,-3.0,-1.0,-0.75,-1.5,1
-4.625,-5.125,-0.125,0.25,-1.125,2.25,-0.25,-4.75,2
-1.0,-0.625,-1.0,-6.625,4.75,5.375,0.125,-1.75,3
-0.625,-1.875,-0.75,-0.625,-4.0,-9.75,-2.0,4.25,3
-3.75,-2.0,0.125,-1.25,1.0,-6.5,1.0,0.25,3
-0.875,-0.375,0.125,-0.625,-0.5,4.375,-0.5,-2.25,0
2.625,0.0,-0.625,0.0,-1.625,4.5,0.875,-0.625,3
-6.25,-0.25,1.625,-0.5,5.0,9.5,0.125,2.125,2
-4.875,-1.5,-0.125,-1.25,2.5,-2.125,-1.625,-5.125,2
-1.375,-10.0,-1.875,-2.125,0.625,-2.5,-1.25,1.25,2
-1.25,-1.375,-1.375,-1.5,-0.25,10.375,0.5,-1.875,3
-1.375,-1.25,-1.125,-0.625,-0.25,1.125,0.125,-0.125,1
-5.5,-1.375,0.375,0.375,2.25,0.375,-3.625,-7.125,3
-0.375,-0.75,-0.5,-0.25,4.0,0.25,-0.375,-0.5,1
-1.25,-6.0,-1.375,-0.5,0.625,-0.375,-2.0,-3.75,2
4.5,-0.25,-1.25,-1.375,5.125,4.625,0.625,-0.25,1
-2.25,-1.25,-0.875,-0.125,3.125,-2.5,-0.5,-1.125,1
-3.0,-1.375,-1.375,-1.0,-7.5,-2.875,-0.75,-0.125,1
1.75,-3.25,-0.5,-1.25,-1.375,-3.75,-1.375,-0.25,2
6.875,0.0,-0.875,-0.75,7.5,7.875,24.125,8.5,0
-1.875,-0.625,-0.375,-0.125,-0.25,-4.125,-0.5,-1.75,3
-0.75,4.0,-1.125,-1.125,1.5,-2.125,9.25,2.25,0
-7.25,-9.125,-0.125,0.25,0.25,1.5,0.125,-1.125,2
-1.75,-1.5,-1.125,-1.625,-3.375,-7.125,-2.625,-3.375,3
2.125,2.875,-0.5,-1.625,0.875,7.25,-0.25,-2.25,2
1.125,-2.75,-1.875,-3.0,-2.0,-1.625,-20.625,-7.875,0
-3.875,0.375,0.375,0.75,2.5,2.625,-1.75,-1.25,0
9.0,4.75,-0.75,-2.125,-3.625,0.375,-1.0,2.5,2
-7.375,-1.75,-1.0,0.125,-1.125,0.125,-16.625,-7.125,0
-1.75,-1.375,-1.375,-1.0,0.625,-4.5,-1.625,-2.875,3
-0.75,0.0,-0.875,-1.0,-1.625,-14.0,-8.0,-4.125,3
1.0,-0.75,-0.75,-1.0,0.125,0.875,-0.5,-0.5,1
-1.875,3.25,-0.625,-1.0,1.25,-6.875,-1.0,-1.125,2
-7.5,-1.0,3.125,4.625,-0.625,-9.5,-23.25,-10.25,0
-3.75,-13.125,-2.5,1.625,0.5,-1.25,-1.25,5.125,0
-0.5,-1.75,-1.125,-0.5,-3.5,-3.0,-1.25,2.25,2
-3.5,2.75,1.25,3.125,-2.5,1.625,0.0,-1.375,0
-2.5,-0.5,0.125,-0.75,-2.125,-4.5,-1.125,-1.5,1
-0.625,-0.5,-1.25,-1.375,-0.125,-6.375,-1.625,1.5,3
1.125,-1.625,-0.625,-0.125,2.5,-1.0,-2.25,-4.75,0
-4.75,-0.25,0.125,-0.375,0.25,-14.875,-0.75,4.0,3
-0.75,-5.0,-2.375,-4.25,-0.25,-1.375,3.25,-0.125,0
-4.125,-1.0,-1.875,-0.625,-2.75,-2.5,-7.375,-0.75,0
-2.5,-2.0,-1.625,-2.125,-4.625,0.0,-0.75,-1.75,2
-1.5,-7.0,-0.625,0.375,-0.125,-9.0,-0.875,-0.375,2
-0.125,-3.5,-1.0,0.0,3.375,-2.125,-1.625,-0.625,2
-3.0,-3.125,-1.75,-0.875,1.25,5.0,3.0,2.0,3
-1.125,3.875,-1.25,-1.625,10.0,7.75,-0.125,-3.25,1
-0.75,0.125,-1.375,-1.75,6.0,0.0,-0.875,-2.0,1
1.375,-0.375,-0.5,-1.125,-2.625,1.125,-0.75,-0.625,1
-1.375,1.5,1.25,0.625,-2.0,5.125,0.625,-2.5,2
-6.125,-1.125,-0.625,-0.75,0.375,-0.75,-8.0,-7.625,0
0.625,2.625,2.75,0.125,-7.125,0.5,2.625,-1.0,2
-4.375,-5.375,0.375,-1.5,-1.875,2.375,-0.5,0.5,2
-2.875,-1.125,-1.0,-1.0,0.5,1.625,-0.375,-0.875,1
2.75,-0.25,0.375,-0.25,-7.0,-2.875,-0.25,4.125,3
4.125,-1.75,-0.25,-0.125,-0.375,1.125,0.375,6.75,1
4.375,2.375,0.5,-0.375,-10.0,-1.25,-1.25,1.75,2
-1.875,-1.5,-1.5,-1.75,-1.0,-8.375,-3.125,-1.625,3
-2.875,-1.875,-1.875,-2.625,-0.125,-1.0,-8.875,-2.875,0
-2.375,-2.5,-1.0,-1.375,-2.875,0.5,-0.75,-1.375,1
1.125,-0.375,-1.0,0.0,-0.75,-2.5,0.875,1.0,1
2.0,-0.5,-0.375,0.0,-5.75,-4.125,-0.625,1.25,1
-4.25,-2.125,-0.625,-4.5,-1.375,-19.625,-5.0,0.75,3
-0.375,0.5,-0.5,-0.625,0.875,-6.25,-1.625,-2.25,2
0.5,-1.125,-1.75,-1.25,-3.625,-1.25,-0.625,-1.5,3
-0.75,0.875,0.625,-0.75,1.875,1.25,3.0,1.125,0
-2.375,-0.75,-2.375,-1.0,1.25,2.875,-2.25,-2.5,0
5.125,1.875,0.125,-1.375,-0.25,0.375,10.5,1.5,0
0.875,0.125,-0.75,-1.5,1.0,-0.25,-0.375,0.375,1
-2.25,-0.875,-0.5,0.25,3.625,3.25,-1.75,-1.0,3
2.25,-0.375,1.375,2.125,1.125,-7.625,-1.125,-2.0,3
0.125,-2.0,-0.5,-1.125,-8.5,-7.75,0.5,-0.75,2
-1.25,-0.25,-1.25,-0.5,0.0,3.5,-0.125,1.875,2
-1.0,-1.75,0.5,-1.375,1.0,-1.125,-4.75,-1.125,0
3.125,0.75,0.5,1.5,1.25,1.25,1.375,-2.0,0
-0.125,1.625,-0.75,1.125,4.5,5.625,1.5,1.5,2
1.375,-1.25,-1.875,-2.125,-1.25,-1.875,-2.625,-2.875,3
-2.625,-1.375,1.25,1.125,0.25,-0.75,-1.625,-4.375,2
7.875,-4.75,-3.375,-2.25,-6.875,-0.125,-1.5,-4.0,2
-5.625,-0.625,-0.375,0.125,-0.875,2.75,-0.875,-3.25,1
0.375,-0.5,-0.25,0.625,-4.75,2.125,-0.25,2.25,2
0.75,0.625,0.5,0.0,0.625,-4.0,-0.5,-2.125,3
0.375,0.125,-0.5,-1.0,-2.125,-5.375,-1.75,0.625,3
-0.875,-0.25,-0.625,-1.375,-2.5,-5.75,-1.875,0.375,3
-4.875,-0.875,-0.875,-0.125,-1.25,-2.625,-15.5,-7.125,0
1.5,-1.625,-0.75,-1.125,-1.125,-4.25,-1.5,-2.5,2
0.875,6.0,0.125,0.75,2.625,4.75,-0.25,3.0,2
-0.125,1.0,-0.5,-0.625,-3.125,-13.75,-5.625,-0.875,3
-1.875,-0.375,0.25,0.125,12.0,1.5,-2.5,-3.375,2
0.625,1.0,4.25,1.75,5.375,9.375,0.625,-0.625,2
-1.75,-1.125,-1.75,-0.25,2.125,3.375,-0.375,2.5,2
-2.75,-0.75,-0.5,-0.625,4.125,4.625,-0.875,-1.125,3
-0.875,-0.5,-0.5,0.0,1.25,-0.75,-2.125,-0.125,1
-1.625,-0.875,-1.125,-1.25,-1.5,-0.875,-0.25,0.0,3
-5.375,0.25,-0.5,0.75,4.75,14.75,4.25,-2.375,3
1.125,0.125,-0.125,-1.375,-3.5,1.75,-1.75,0.125,3
-0.5,4.0,-0.375,-1.125,-7.875,-7.0,-2.125,-1.875,2
-1.375,-0.875,-1.125,-0.25,-1.25,-2.625,-1.25,-2.375,1
-0.875,-1.25,-1.375,-1.25,3.875,-2.375,-1.25,-1.375,1
6.375,0.125,0.0,-0.75,1.125,-0.125,-4.125,2.125,0
-2.125,0.375,0.125,0.5,-1.75,-1.875,0.125,2.25,1
8.5,2.5,2.5,2.5,-1.125,1.75,0.75,-3.5,0
2.375,-2.625,-4.375,-6.5,-4.5,-5.875,8.0,-2.75,0
-0.375,0.75,-1.25,-1.75,-0.125,-5.125,-0.625,-0.125,2
-1.0,-0.5,-0.5,-1.625,-2.625,-2.75,-2.125,-2.75,0
1.5,0.125,-1.25,-1.375,-1.5,-0.875,-2.25,-2.625,2
-4.125,-3.5,-3.875,-0.25,-1.625,-7.75,-5.125,-4.0,2
-2.25,-1.75,-0.875,-1.25,1.125,1.25,2.375,-0.25,0
4.875,4.25,-0.5,-0.625,-0.75,2.75,-2.25,-0.75,2
3.125,-1.0,-1.0,-1.5,-3.25,-3.0,-17.0,0.75,0
-4.75,-0.25,-1.0,-0.375,-1.5,-0.875,-31.5,-6.75,0
-3.0,-1.0,-0.875,0.25,-3.5,-2.875,-1.25,-1.125,1
2.375,-0.125,-0.375,-0.25,-5.125,-4.125,-1.875,-2.125,1
1.125,-0.125,-0.125,-1.375,-5.5,-15.125,-2.0,-1.625,3
-2.0,-1.5,-1.0,0.125,-1.0,-0.125,-1.0,-1.5,3
-0.875,-1.375,-0.875,0.375,-1.0,-2.0,4.875,3.75,0
-5.125,-3.75,-0.125,3.0,-2.0,-0.625,4.125,-0.25,3
-2.75,-4.5,-0.25,-0.625,1.25,3.375,-1.625,-1.875,0
-4.125,-0.125,-0.25,-1.0,-6.375,-3.875,-1.25,-0.875,1
2.625,-0.875,-1.375,-0.125,2.75,3.0,0.25,0.0,1
0.5,5.75,0.75,-2.125,-0.125,3.5,1.375,-2.125,2
-3.375,-2.625,-0.875,0.125,0.375,0.5,-0.75,-1.125,1
-1.375,-1.25,-0.875,0.75,2.5,3.0,-1.75,-2.625,3
5.125,-0.375,-0.5,-0.25,0.375,0.75,-1.0,-1.25,3
-1.625,-1.75,-1.25,-5.625,-3.375,-0.25,-56.5,-8.0,0
-2.375,-3.625,-1.75,-1.75,-0.125,2.25,-4.125,-0.75,0
-7.5,-5.125,-0.875,-0.875,-1.375,3.625,-0.125,5.375,2
-0.375,0.625,-0.75,0.125,2.75,10.125,1.375,2.375,3
-5.625,-1.0,-0.5,0.0,0.125,2.5,-0.75,1.25,1
1.0,3.75,1.0,0.25,-1.25,-12.5,-4.125,2.75,3
-2.875,-1.25,-0.875,0.125,2.25,-0.375,-1.125,-0.25,1
-1.625,-1.5,-1.375,-1.625,-2.5,1.625,-0.625,-1.125,1
-0.625,1.125,0.5,1.125,-2.0,-5.5,-41.25,-6.0,0
4.375,-6.875,-0.5,-0.25,-2.0,-1.0,0.125,1.125,2
-1.75,-0.375,-0.25,0.75,4.125,1.75,0.125,-3.375,3
-1.375,5.75,-0.5,-2.125,-4.5,-1.5,-4.375,-7.25,2
-1.25,-0.375,0.25,-0.125,0.5,-4.5,-0.75,-1.625,1
5.75,2.375,-0.125,-2.375,1.25,8.875,-1.375,5.0,0
0.0,-0.5,-1.25,-1.25,-4.375,-1.5,-1.125,1.875,1
-2.125,-2.5,-2.0,-3.625,-2.625,-11.875,-2.5,-8.375,3
0.0,-1.25,-1.75,-1.0,1.5,2.0,-0.25,2.125,3
-0.75,-0.625,-0.375,-0.375,4.375,0.0,-0.125,-3.125,3
-3.125,-3.0,-2.375,-2.375,4.25,0.625,-1.5,-2.125,2
6.25,-2.0,-1.625,-1.375,-1.625,-1.25,-0.75,-1.0,2
-26.375,-6.0,-5.625,-6.375,5.5,0.125,-23.5,-7.125,0
2.125,0.375,-1.0,-0.125,-2.75,-1.125,0.125,2.625,2
2.375,5.125,0.125,-0.5,1.75,-5.5,-2.0,-3.25,2
-2.125,6.625,1.125,-1.5,-0.75,-3.5,0.25,-0.625,2
-2.0,-1.125,-0.375,1.125,0.875,-4.375,-1.0,-3.25,3
3.5,9.25,1.625,0.125,4.5,-2.875,-3.0,0.5,2
-0.375,-1.25,0.375,0.125,-3.25,-3.5,-0.5,-1.75,1
-2.25,-1.125,-1.0,-0.25,0.5,3.25,-1.0,0.0,1
0.625,3.0,2.125,-0.125,0.25,0.0,2.125,1.75,0
-0.125,-0.75,-1.0,-1.125,-3.25,2.875,0.5,-0.125,3
-3.0,-0.875,-0.25,1.125,-1.375,-1.875,-8.375,5.25,0
-2.25,-1.625,-1.125,-1.625,-2.5,-0.625,-1.75,-0.5,1
3.75,-1.0,-3.875,-1.875,2.75,-5.5,-3.25,-11.0,0
1.625,-0.625,-0.75,-1.625,0.125,-4.625,-4.875,-2.5,0
-1.0,-1.0,-0.375,-0.75,1.375,-4.5,-0.625,-2.125,2
-1.875,-0.5,-1.0,-0.625,0.0,1.875,-1.0,0.125,1
-3.875,-1.125,0.25,0.5,-0.375,-4.0,1.75,1.875,0
1.875,-0.75,-1.375,-1.125,-4.25,-1.75,-2.625,-1.125,3
1.375,-1.125,-0.625,-0.75,2.75,2.625,-2.0,-0.75,3
-0.375,-0.5,-1.375,-1.75,-0.125,0.75,1.625,-2.0,0
-0.875,-0.25,-1.25,-0.125,10.0,4.25,-0.5,1.5,1
-3.0,-1.0,-1.25,-0.25,-1.5,-1.0,0.25,-3.375,3
-3.625,-1.25,-1.375,-1.0,-2.0,0.125,-1.125,-0.875,1
5.875,0.75,-0.375,-0.875,-4.625,-9.125,-1.125,0.625,1
-2.75,-1.0,-2.5,-2.0,-3.875,-0.75,-29.875,0.125,0
-5.0,-0.5,0.0,0.75,4.75,6.875,2.125,-0.75,1
-3.375,-0.625,-1.5,-1.5,4.5,-1.875,-0.25,-1.25,1
0.0,0.625,-0.75,-0.25,3.875,8.0,0.625,-2.25,2
0.25,0.0,-0.25,-0.75,0.625,0.0,1.0,3.75,3
9.125,-0.125,-1.0,-1.375,7.125,4.625,-0.375,4.375,1
-4.5,-0.875,0.625,2.0,-0.625,5.25,12.5,7.5,0
-7.25,1.5,-0.75,-2.125,0.75,1.25,9.5,-2.75,0
0.375,-2.25,-3.0,-3.75,1.25,-0.75,5.875,5.875,0
0.75,0.0,-2.0,-1.375,-4.625,-3.75,1.5,0.375,2
2.625,-0.375,-0.75,-0.25,4.0,3.125,-1.125,-2.25,1
-5.0,-0.625,-0.25,1.875,0.5,-3.5,-12.75,-5.25,0
-1.375,0.625,-0.125,1.0,-8.375,-1.875,-1.375,-2.0,1
-2.0,1.625,-1.25,-0.125,1.125,-2.25,-9.875,0.375,0
-2.375,0.625,-0.875,-2.0,1.5,1.5,-1.0,-4.75,2
1.375,-0.125,0.0,0.5,1.875,4.375,0.625,-3.25,2
2.375,0.875,-2.125,-1.375,2.375,4.875,-12.125,-1.25,0
1.0,-0.75,-0.5,1.25,1.75,-1.875,3.125,-0.375,0
-3.0,-1.875,-1.75,-0.5,4.875,8.875,-0.75,-1.875,1
2.125,-0.875,-1.5,-0.75,-3.125,0.5,-0.125,-1.625,1
-1.125,-1.75,-0.75,2.25,1.875,-4.625,-0.625,-3.25,3
-1.625,0.625,0.125,-1.375,0.125,-1.25,-1.5,2.375,0
1.375,-1.625,-0.625,0.375,1.5,-2.375,-11.0,-1.375,0
4.0,4.25,-1.125,0.0,6.875,6.625,1.5,1.625,2
0.625,0.625,0.25,0.5,0.875,-0.625,6.125,-1.25,0
-2.625,-2.25,-2.25,0.375,0.625,-0.5,8.125,1.0,0
-0.125,-0.125,-0.5,-0.5,-0.5,-2.375,-1.0,0.0,1
2.75,-1.875,-3.125,-0.75,-1.875,-3.625,-1.875,-4.0,2
-2.5,-1.75,-0.5,-2.25,-2.125,1.25,-3.125,-0.5,0
-1.25,-0.75,-0.375,-1.0,-0.375,-4.375,-2.375,-2.375,3
2.75,2.625,1.25,-1.125,-3.0,0.5,-8.625,-4.375,0
-3.375,0.75,0.375,-0.25,3.875,-0.125,-1.625,2.5,2
-4.25,-1.5,-1.125,-0.375,-1.125,2.5,-0.625,-1.625,1
-3.125,-1.375,1.375,3.625,-2.25,-14.5,-1.75,-1.125,3
0.5,2.875,-0.5,-0.75,-3.25,-2.875,-0.625,-1.875,2
-1.75,-1.25,-1.25,-1.25,3.25,-1.125,-2.5,-2.75,3
2.25,3.125,-1.375,-0.5,-0.75,4.875,-0.375,1.125,1
1.875,-0.125,0.0,0.75,-0.625,0.0,-2.0,-2.875,0
-2.25,-1.0,-0.75,-0.75,-1.5,-3.5,-9.25,-7.25,0
-1.125,-0.375,-0.375,0.25,0.125,-0.25,-0.5,-2.75,1
-4.875,-6.125,-0.25,-0.125,4.0,-11.5,-0.25,8.375,2
-6.75,-4.125,-1.25,-2.75,-2.25,-3.625,-1.5,-1.375,2
0.625,-2.125,-1.0,-1.625,2.25,1.5,-0.125,1.625,1
-0.625,-0.5,-1.0,-0.25,-0.625,-11.625,-1.5,1.25,3
2.25,5.0,-2.625,-0.875,-0.75,-3.25,-3.125,-2.0,2
1.25,5.375,0.625,1.0,-1.75,-1.75,0.0,-0.375,2
-1.125,-1.0,-1.25,-1.25,1.375,1.75,6.625,-0.875,0
3.0,-1.5,-0.75,0.5,1.125,2.5,3.0,-1.0,3
-1.875,-0.5,-0.375,-0.25,-1.0,-5.5,-0.875,-0.125,3
-0.875,-0.75,-0.875,-0.625,-2.375,1.125,-0.5,0.375,1
1.875,0.5,1.0,0.625,2.75,12.0,3.25,2.125,3
-4.25,-15.25,-1.375,-2.0,2.0,-2.375,-1.0,-2.625,2
-1.625,-1.0,-1.375,-1.875,-1.375,0.75,0.0,-1.125,3
-5.125,0.875,-1.25,-1.875,1.25,7.25,-1.875,-2.5,2
-2.875,-0.125,-0.375,-1.125,1.875,1.25,-1.75,-3.75,1
-5.125,-1.5,-0.25,0.25,1.375,-1.375,-0.5,-3.625,1
2.5,-1.625,-2.25,-2.0,4.5,5.375,-1.75,-2.5,1
0.875,2.25,-3.0,-2.5,3.125,-4.0,0.375,-2.0,2
-3.25,-2.375,-1.0,-1.375,-3.375,1.625,0.5,-2.5,2
1.125,-0.625,-0.5,-0.25,1.5,-3.75,-0.375,0.5,1
-4.0,0.125,-0.875,0.375,-1.25,-1.375,-0.5,-2.0,1
1.75,0.75,-0.125,0.875,-3.25,-0.25,-1.875,-1.875,1
-2.75,-0.25,0.0,-0.375,1.625,-4.125,-0.375,-1.125,1
1.5,-1.0,-1.0,-1.625,-3.125,-3.0,-1.125,-0.25,1
-3.0,-1.125,-0.875,-0.75,0.625,2.875,-0.875,2.0,1
-4.625,4.625,0.375,0.75,-5.375,-1.625,-0.125,-1.75,2
-1.375,-0.375,-0.5,-0.25,-1.5,5.875,-0.25,-2.125,3
1.625,-2.75,-0.625,-4.125,-1.375,-1.25,-3.875,-3.25,0
-0.875,-2.625,0.25,0.875,6.25,5.5,1.625,-1.375,2
1.125,0.25,-0.5,-0.625,-2.125,-1.75,-1.75,0.75,1
-2.25,-0.375,-1.0,0.125,1.25,-2.0,-1.25,0.125,3
-1.0,-1.0,-0.375,0.0,-5.625,-3.5,-0.75,-0.75,1
-1.125,4.0,-0.875,-1.125,-3.25,1.375,-0.625,0.75,1
2.5,-1.375,-0.875,-0.375,0.5,1.0,0.25,2.75,3
-1.375,-0.625,-0.125,0.625,-6.75,-9.375,-0.625,-4.125,1
-4.25,0.625,0.875,1.875,0.5,5.125,1.375,-2.125,0
-4.0,-1.75,-1.75,-0.75,-1.5,-0.75,-3.875,-5.375,0
-3.75,-4.875,-3.5,-0.625,-0.375,-1.75,-1.75,-1.125,2
-1.375,-1.125,-0.125,-0.5,-2.5,1.125,-2.125,-1.625,3
2.25,-2.375,-0.75,-1.125,4.625,0.875,-1.0,-0.125,1
-1.25,-1.625,-1.125,-2.5,-3.125,0.5,-13.875,-8.625,0
-4.875,-1.625,-0.875,-0.625,-0.625,-5.25,-1.125,1.5,1
0.25,1.0,-1.0,2.125,-3.25,1.0,-0.375,1.0,2
0.75,-0.625,-1.25,-0.375,-0.5,0.625,7.125,1.5,0
-5.0,3.625,-0.625,-0.375,-0.625,-5.625,-1.0,-3.375,2
-1.125,-2.5,-1.375,-1.375,-0.5,4.75,-5.75,-3.25,0
-1.375,-0.75,-0.875,-0.625,1.0,1.0,-0.625,0.125,1
-0.25,-2.375,-2.5,-2.125,0.5,1.5,-1.0,-2.25,3
1.75,2.875,-1.875,-1.375,3.375,-0.625,-0.75,0.75,2
1.0,-1.625,-1.625,0.0,-0.375,1.125,-1.25,-2.625,0
-12.5,-2.625,-2.25,-1.625,-3.75,-7.375,-2.0,-0.5,2
-4.75,0.625,0.375,-1.375,2.375,1.25,1.375,-3.625,0
0.875,-0.5,-1.375,-1.25,-9.0,-5.375,-1.375,3.75,1
-2.25,-1.625,-0.875,-1.875,-1.375,1.125,-3.625,-2.5,0
0.25,-0.125,-0.375,0.125,0.75,-3.625,-1.75,-0.625,1
0.0,2.125,-0.75,-0.375,-0.25,-0.875,3.125,-1.375,0
-1.875,-0.875,-0.375,-0.125,6.25,-1.25,-0.625,-0.625,1
-0.25,-0.625,-0.75,-1.125,0.75,-1.125,-1.25,-0.375,0
-1.5,-1.5,-0.375,-0.5,-1.375,-1.5,-0.625,-3.375,3
-1.625,0.0,-0.375,1.125,2.375,-1.875,-6.75,2.25,0
-2.375,-1.125,-0.75,-0.25,1.375,1.75,-0.625,-1.5,3
1.0,-0.375,-0.75,-0.625,-0.375,-7.875,-1.5,0.5,3
4.125,2.875,0.0,1.5,-1.375,-6.625,0.125,1.375,2
-4.125,-4.25,-0.5,1.125,2.5,6.75,-4.5,-2.25,0
-2.875,-3.0,-2.75,-2.0,-1.125,-6.75,-1.625,-2.125,2
-1.875,-3.5,-0.625,1.125,2.625,4.375,-1.5,0.625,2
-0.75,-1.875,-4.875,-1.375,4.875,-1.75,-34.875,-9.5,0
0.125,-1.25,-2.125,-1.875,-2.875,-1.625,0.0,1.625,3
-1.875,0.125,-3.5,-2.25,-0.75,0.125,-1.0,-5.125,2
-2.75,-0.875,-0.75,-1.75,-3.5,1.25,-0.875,-1.625,1
-3.125,-0.375,0.25,0.75,3.625,2.375,-0.75,1.75,2
-0.5,-1.625,-1.5,-1.125,-0.25,0.875,-1.75,-1.375,2
-1.375,-2.0,-1.625,-2.0,-2.125,1.0,0.125,0.875,1
2.875,-2.375,-0.625,-1.0,-0.75,-4.75,-1.25,1.875,2
6.125,-0.125,-0.125,-0.125,-0.25,-4.0,-1.0,0.0,1
-4.125,-2.125,-2.625,-1.5,-0.25,-10.0,-2.75,1.625,3
-0.125,-0.25,-1.0,-0.75,-3.25,-2.0,-1.0,0.25,1
-2.0,-3.625,-2.125,-1.0,1.0,5.0,0.375,1.0,2
-0.5,-0.75,-0.625,-0.875,-3.625,-5.5,-0.125,2.25,3
-2.0,-0.125,-0.5,0.75,2.5,4.625,0.0,-6.625,3
1.125,1.25,0.125,-0.125,4.25,1.875,-1.625,-1.75,1
2.125,0.625,-1.75,-4.75,-3.375,-0.125,-6.875,-1.375,0
-2.0,-1.375,-1.75,-2.125,-3.0,-8.0,-1.5,-3.125,3
-1.25,-3.375,-1.25,0.875,1.0,0.75,-1.125,-1.5,2
1.125,4.125,-1.375,-1.375,-0.875,-3.5,-8.25,7.25,0
1.375,-0.25,-0.75,-1.625,-7.0,-4.125,-2.625,-3.5,2
0.75,-0.125,-0.625,0.375,-4.5,-8.625,0.5,0.25,3
0.25,-0.375,-1.125,-1.125,0.875,1.75,0.375,0.875,3
-1.125,-0.5,-0.125,0.25,-0.625,-1.25,-0.25,1.0,3
-2.375,0.0,-1.75,-1.375,5.875,6.5,0.0,-1.875,1
-3.25,-13.625,-2.5,-0.125,3.625,-2.5,-1.25,-0.375,2
-0.75,-0.5,-0.375,-2.375,0.375,-5.125,-5.25,-3.375,0
2.5,-0.75,-0.25,-0.625,-2.25,-6.25,1.0,2.0,2
-2.25,-2.0,-1.75,-1.625,1.625,4.625,0.0,-2.25,3
6.125,1.375,-0.5,-3.0,-2.375,0.25,-1.25,0.875,2
-7.625,-0.625,-0.5,-1.625,5.0,-6.375,-0.625,-0.625,2
0.0,-0.25,-1.0,-0.625,1.75,-2.5,-2.25,-4.75,3
2.25,0.0,0.0,-0.75,-1.5,-6.625,-1.25,-0.25,1
-1.75,2.75,-0.75,-0.75,7.375,0.5,-10.375,-3.75,0
1.0,-0.875,0.25,1.375,8.125,6.5,-0.5,0.375,1
-2.375,-0.25,-0.125,-0.625,-1.0,-3.625,-2.625,-1.5,3
0.75,5.0,0.75,-0.75,0.125,-2.25,0.75,1.0,0
1.375,0.0,-1.125,0.625,1.5,4.0,0.375,4.375,2
5.625,0.25,-1.25,-3.625,1.5,-11.125,-3.875,-4.25,3
5.625,-4.375,-0.25,-0.5,-2.125,1.5,0.625,-1.75,2
0.5,2.0,-1.5,-0.375,-2.25,8.125,0.5,2.125,2
3.75,0.25,0.375,-0.5,-4.75,-6.375,-0.625,-0.75,1
-4.25,-1.375,-1.375,-0.875,-5.0,-0.875,-0.75,-2.625,1
-3.0,-1.625,-0.875,-1.75,3.625,-1.625,-0.375,1.375,1
1.25,1.125,-1.0,-2.0,-2.375,0.375,-0.25,2.0,2
-3.125,-1.125,-2.125,-2.25,4.875,4.125,-1.75,-3.125,1
0.625,2.75,-1.625,-0.75,4.875,3.625,0.0,4.75,2
3.375,-1.0,-0.75,-0.875,7.25,1.75,-0.625,-0.25,1
-3.25,-0.625,0.75,0.375,-5.125,-2.375,-0.5,-3.125,1
-1.375,0.5,-1.25,-2.5,-0.125,-10.375,-2.5,-1.625,3
1.125,6.875,-1.875,-1.625,-2.75,-5.375,-1.0,-1.25,2
-2.5,-0.75,0.125,0.875,0.0,1.75,6.5,1.0,0
-4.375,-3.75,-3.25,-1.625,0.5,-4.25,-1.0,1.0,2
-3.5,-1.75,-1.0,0.625,2.125,-3.875,6.875,3.0,0
-4.0,-2.125,-1.5,-1.125,-0.25,-0.375,-2.0,-0.75,2
1.875,0.0,-0.625,-0.625,0.75,0.875,-2.125,-1.75,1
4.5,0.125,0.25,-1.0,-2.875,-2.75,-0.5,0.125,1
-1.0,-0.75,-1.0,-1.25,0.25,-1.5,0.5,0.375,1
-0.625,-1.125,-0.5,-0.375,-0.125,-6.375,-1.5,2.75,3
1.0,0.125,-2.0,-3.0,-0.625,-18.0,-5.375,-1.5,3
-2.0,-3.625,-0.25,0.25,-0.125,8.125,0.5,0.75,2
0.875,-1.125,-1.0,-0.625,5.375,9.0,0.25,-0.75,1
3.0,-1.625,0.625,1.0,-2.125,-4.0,-1.75,1.25,2
-3.0,-2.125,-1.5,-0.125,1.0,-1.5,-0.625,-1.5,1
-3.375,3.5,2.375,0.75,4.0,-0.5,-0.875,-1.125,2
-2.875,-1.25,-1.5,-0.5,0.875,-1.625,-13.625,-5.0,0
0.5,0.125,-0.75,-0.125,-0.625,-2.125,-0.875,0.25,1
-6.375,-0.875,-0.375,-0.5,-1.25,-0.375,-1.25,-1.375,0
0.5,-0.625,-0.75,-0.875,6.125,5.0,-0.875,0.375,1
-2.375,-1.5,-1.625,-1.625,0.875,3.375,-4.0,2.25,3
-3.75,-0.875,0.0,2.25,2.125,-0.75,-0.375,-2.375,0
-0.75,0.5,-0.875,-0.75,1.25,-0.375,0.375,-0.875,0
1.875,2.125,0.0,-0.375,-4.0,-7.5,0.875,-4.375,3
-2.0,-1.125,-0.75,-0.125,2.375,0.5,-0.5,-1.375,1
1.125,-0.875,0.0,0.5,1.0,-0.75,-3.0,-1.5,0
-5.25,-1.875,-0.625,-0.375,-0.5,-1.25,-0.75,-2.125,1
-0.5,-1.125,-1.125,-0.5,-1.25,-0.25,-1.25,0.125,1
-7.0,-3.25,-2.125,-2.5,1.0,1.875,-0.875,1.875,1
-2.625,1.625,-0.875,-1.5,-1.75,0.875,-1.25,-2.0,1
-2.75,-1.75,2.0,0.375,3.0,-1.875,2.0,2.75,2
1.125,-0.625,0.625,-0.25,0.875,3.25,0.25,-0.25,3
0.625,-0.625,-0.625,0.625,1.75,14.75,0.5,2.625,3
0.875,-1.0,-0.625,-1.25,1.0,1.125,-1.25,-2.375,3
-0.125,-0.5,-1.375,-0.625,-2.875,-8.5,-2.625,1.25,3
0.125,-3.125,-0.125,1.125,1.5,4.75,0.25,-4.0,0
0.25,-1.0,-0.125,0.0,-0.5,-0.875,3.5,-0.125,0
-3.625,-1.25,-0.5,-1.375,-2.25,0.375,-0.625,-1.625,1
5.125,0.125,0.25,1.875,-8.125,-3.375,-0.5,0.75,1
6.25,-0.125,-0.25,0.375,7.125,0.0,0.125,1.5,1
-6.75,-1.625,-1.625,-1.75,2.0,4.5,-0.75,-1.75,1
5.125,0.25,-0.125,-0.125,0.5,2.25,1.125,7.25,0
-2.375,-1.25,-0.75,-1.625,1.625,-1.375,-2.5,-2.0,3
0.75,3.625,-1.625,-1.75,-0.875,-1.75,-4.375,-4.375,2
0.75,-1.0,-0.875,-0.375,-2.25,1.375,-0.25,-0.5,1
-2.75,-0.75,0.25,-0.625,-3.5,11.125,1.0,-2.125,3
-8.25,-12.75,-1.25,4.0,-1.75,-3.875,-13.625,-8.25,0
-0.75,-0.125,-0.5,-0.375,2.125,-0.5,0.0,1.75,1
-3.625,-1.375,-2.875,-1.625,-0.125,-0.75,-15.25,2.25,0
1.5,-3.75,-1.25,-1.0,-0.5,-2.375,-0.875,-2.125,2
-1.5,-1.5,-0.75,-0.875,0.375,3.75,-0.5,-0.5,1
-4.75,-1.0,-0.375,-1.25,0.375,2.5,-0.75,-2.625,3
0.5,-0.125,-0.625,-0.75,-2.125,-1.25,-0.625,1.25,1
-2.25,0.0,-1.75,-0.875,-0.25,-6.5,-1.5,-3.25,2
-4.5,-1.75,-1.125,-1.0,-5.0,-1.25,-1.0,-0.875,1
-2.25,-1.5,-0.75,-1.125,-2.875,-1.875,-14.0,-4.5,0
-4.375,-1.125,-0.125,0.125,-2.75,-4.5,0.25,0.25,1
-0.25,-1.125,-1.25,-1.125,0.625,-4.375,-1.0,0.125,3
-2.0,-3.625,-1.625,0.5,-4.0,0.875,-2.125,-2.75,2
1.5,5.625,1.5,-0.5,-3.125,1.125,-1.0,1.75,2
1.5,-0.375,-2.25,-1.125,2.5,4.5,-1.125,-1.375,1
2.125,-0.625,-0.125,-0.75,-2.375,2.125,0.375,1.25,3
3.625,-1.625,-0.25,-1.0,-2.0,-0.625,-0.875,1.875,3
0.0,-0.5,0.0,-0.875,-0.625,1.125,-1.125,-3.25,1
-4.375,-1.0,-1.25,-1.5,-1.5,-0.5,-0.5,-0.125,1
-3.0,-0.875,-0.625,-0.75,-1.875,-0.25,-1.125,-1.25,1
-4.5,2.5,0.625,1.125,10.0,3.375,0.875,-0.375,2
6.25,-13.875,-3.75,-0.625,0.875,0.0,0.375,4.0,2
0.0,-1.75,0.0,-3.125,-0.5,0.875,9.5,4.75,0
-1.5,-0.125,-0.5,-1.25,-0.375,0.0,-0.875,-0.375,1
0.75,-0.25,-0.375,-0.625,-1.75,1.25,0.625,0.375,3
-1.75,-1.375,-1.375,-1.875,-2.0,-0.875,-7.125,-1.875,0
3.75,-0.375,-1.0,-0.125,0.0,1.5,5.25,8.25,0
-3.0,-2.0,-1.125,-0.625,4.625,1.125,-0.875,-3.0,3
-2.375,-1.0,-0.5,-0.875,-3.25,-0.125,-0.875,0.0,1
5.375,0.625,-0.5,-2.5,2.25,-2.75,-5.75,-3.875,3
-1.25,-14.25,-0.25,-0.5,7.875,0.625,-1.375,-0.625,1
0.375,0.125,0.625,0.25,5.375,3.375,0.75,-1.375,2
0.25,-1.5,-1.125,-0.875,-0.125,-2.75,-1.875,1.0,3
-0.875,0.375,-0.5,-1.125,-1.375,-6.75,-1.375,-0.125,1
0.75,-1.25,-1.25,-2.0,-2.125,3.5,-1.0,-2.125,1
-3.5,-3.125,-2.0,-3.0,1.25,2.125,6.625,0.875,0
-2.125,-1.125,-0.875,-0.125,2.0,1.625,-0.625,-1.625,1
-3.375,-0.25,0.375,-0.125,-1.375,-3.625,-4.0,1.25,2
0.125,-1.125,-1.375,-4.0,2.625,6.5,-6.5,-2.0,0
-3.25,-0.25,-2.0,-4.625,4.625,5.625,-2.375,-2.125,3
-0.875,-0.5,-0.625,0.0,0.375,-0.75,-0.625,0.375,3
-1.0,-3.0,-0.625,-1.375,-4.5,-8.125,-1.0,-3.5,2
0.375,2.125,-1.0,-0.25,7.375,-6.5,-20.0,-2.5,0
-4.75,-0.75,-1.375,-1.5,-1.875,2.125,-0.625,-0.5,1
-1.375,-1.0,-1.375,-1.75,-0.25,1.125,-1.0,0.5,3
8.25,0.5,-0.5,-0.125,0.375,-2.875,-2.0,1.5,1
-4.5,-1.375,-1.5,-1.375,1.25,4.875,0.125,-2.5,1
3.625,-0.625,0.125,-1.125,3.375,1.5,-1.0,1.75,1
-3.25,-1.25,-1.0,0.375,0.125,0.75,-0.375,-0.125,1
-1.125,-1.75,-1.125,-1.375,-9.25,-21.625,-2.625,-2.375,3
-5.75,1.625,-1.125,-2.5,-0.125,2.75,-5.25,-5.0,0
-1.125,-0.125,0.125,-0.125,-5.375,-4.0,-1.0,-1.375,1
-1.0,-1.625,-1.75,-1.0,1.75,5.875,1.125,1.375,3
-7.75,-1.125,-0.25,1.625,1.375,2.875,6.0,-5.5,0
-1.5,-0.875,-1.125,-0.625,-6.375,6.625,3.375,2.125,3
1.875,-1.375,-1.25,-2.5,2.5,1.625,-3.75,2.0,0
-1.75,-1.625,-0.5,-2.75,3.125,5.375,0.875,8.25,3
-3.0,0.5,1.375,1.125,-11.5,-7.0,-0.25,0.25,1
-0.75,-1.0,-0.875,-0.625,-2.125,0.25,-1.25,-1.375,0
0.5,-0.5,-1.375,-2.75,0.25,-3.875,-2.0,-0.75,2
7.25,0.125,-0.375,-0.5,-6.125,-5.625,0.5,4.25,1
2.625,4.125,1.0,-0.25,-3.125,-9.625,0.625,-1.25,2
5.0,5.0,-2.125,-0.75,-1.625,-9.5,-4.0,-5.875,2
3.25,0.5,-0.25,-1.625,1.75,2.375,10.5,3.625,0
2.0,-0.625,-1.25,-0.625,1.125,4.75,-0.875,-2.0,1
-5.875,-2.125,-0.875,1.0,0.125,8.625,-4.125,-4.875,3
3.125,0.75,-0.375,-1.0,-4.125,-0.875,0.125,0.5,1
2.375,-6.125,-1.75,-1.0,-3.75,-9.75,1.0,-0.875,2
6.0,-0.75,-2.25,-2.875,-3.375,-1.25,-22.0,-3.75,0
1.625,-4.625,-1.375,0.375,8.5,3.375,-0.5,-1.125,2
4.125,8.375,0.875,-0.5,1.375,-1.375,-2.875,0.875,2
-5.125,-1.5,-0.875,0.125,2.875,1.375,-6.375,-1.0,0
3.125,-1.875,-2.0,-2.625,-2.0,0.875,-0.625,-0.625,2
-2.0,-0.25,0.375,0.75,-2.25,-13.25,-0.25,2.25,3
-1.75,-0.875,1.375,1.125,0.75,0.125,-1.875,-0.5,0
-5.5,-4.125,0.75,-0.75,0.625,-2.25,-1.0,-0.75,2
0.625,-0.125,-0.5,0.125,2.25,3.125,-8.0,3.5,0
-0.75,-1.125,-1.75,-1.75,-1.625,0.0,-0.125,1.75,3
-3.375,-0.875,-1.125,-0.375,1.25,0.0,-1.25,-0.375,1
-1.5,0.75,-1.25,-1.375,1.375,-1.125,-1.625,-0.125,1
4.25,-1.125,-1.625,-2.75,2.625,4.5,8.75,-3.25,0
3.75,0.5,-0.5,-0.375,2.875,4.125,2.0,0.5,2
0.5,0.375,0.125,-0.125,2.875,2.0,-0.625,2.125,1
-8.5,-12.375,3.25,5.125,7.625,6.875,14.0,0.0,0
-1.75,1.75,-1.25,-0.875,-3.0,-6.0,-0.875,3.875,2
-1.125,-1.625,-1.625,-0.875,4.875,9.125,0.125,1.375,3
4.75,-2.25,-1.125,-0.75,-0.5,-1.75,-2.625,-2.875,0
-0.375,-4.125,1.5,-0.625,0.25,0.875,0.125,-0.375,2
-4.125,-2.625,-0.375,3.375,1.375,-1.375,-7.875,-3.125,0
-0.25,-0.375,-0.375,-0.5,2.0,0.125,0.5,-2.125,3
-2.0,-2.25,-1.0,-1.0,1.375,9.625,6.125,1.75,3
-1.375,3.375,0.375,-0.375,1.75,-3.0,0.5,2.375,2
0.125,0.125,2.125,1.0,4.875,-4.25,-0.25,0.125,2
1.875,3.625,0.25,0.125,-0.875,-6.125,-0.375,-1.25,2
-0.875,-1.625,0.125,0.5,-0.75,-9.5,-1.5,0.0,2
-1.125,0.75,-1.0,0.625,0.375,0.375,-1.875,-5.0,2
-1.75,-0.875,-0.5,0.125,2.25,2.25,-1.25,-3.5,3
1.75,-2.125,-0.25,0.375,-1.0,4.25,1.125,1.75,2
5.25,0.25,-0.25,-1.5,-1.5,-4.375,0.25,2.125,3
-1.75,-4.0,-1.0,-0.5,1.125,6.625,-2.75,-4.25,3
-3.625,-1.5,-1.75,-3.375,-6.25,-2.0,-0.375,-0.75,1
0.125,-4.75,0.0,0.625,-1.375,1.0,-0.25,-2.5,2
-1.125,-0.75,-0.875,-1.125,2.375,6.25,-0.75,-2.5,3
0.625,-1.25,-2.5,-0.25,-2.5,-2.875,-1.25,-0.875,0
-2.875,-0.125,-0.375,-0.5,1.125,5.25,1.0,1.5,2
1.125,-0.375,-0.375,-0.375,-0.375,-3.875,-0.5,1.625,3
0.125,0.125,-1.5,-1.5,-1.25,2.375,-2.625,-4.75,3
1.875,1.375,-0.875,-1.0,-0.5,0.0,0.0,-1.75,2
-2.75,-0.25,-1.125,-0.375,1.625,5.25,-1.125,0.0,3
-3.0,-3.25,-0.625,-0.125,1.25,-12.625,-7.125,2.5,3
-6.5,-14.875,-5.625,-1.625,1.625,3.375,23.75,2.375,0
-1.25,-0.5,0.25,0.5,4.625,4.5,0.375,0.0,3
0.875,-0.75,-1.0,-1.375,-2.75,-0.375,-1.125,0.25,3
-1.5,-0.5,-2.375,-0.875,1.625,2.0,-0.25,0.875,0
1.5,-0.625,2.125,1.5,2.75,7.25,11.75,6.5,0
-3.375,-1.125,0.125,-0.875,-5.125,-4.0,-1.625,-2.875,1
0.125,-0.125,-0.5,1.0,1.625,-0.5,-5.0,2.375,0
-4.0,0.375,-0.25,-0.75,7.25,3.5,0.5,-4.25,3
-2.25,2.75,-1.375,-1.0,1.375,-3.0,-1.0,0.875,2
0.875,-0.875,-1.125,-0.875,-1.5,-5.0,-3.0,-4.0,3
-2.0,-2.0,-1.25,-0.5,-5.25,-6.125,-46.0,-8.375,0
0.125,4.75,0.0,0.125,-2.25,4.75,1.5,2.0,0
-3.0,0.0,0.0,-0.25,-4.875,-6.375,-0.75,-0.5,1
-4.125,-1.5,-1.125,-0.25,3.5,2.0,0.125,-1.875,1
-1.375,-1.125,-0.75,-0.625,-0.125,0.875,-0.25,-0.875,1
-0.625,-1.5,-1.125,-2.0,0.75,2.875,0.125,-0.875,3
-0.75,-1.625,-0.75,-0.5,-2.375,0.875,-0.75,2.875,1
0.875,0.25,0.625,0.5,-3.125,0.125,5.625,4.875,3
1.875,-0.125,0.125,0.5,-3.625,-3.5,-0.125,0.25,1
-1.875,5.75,1.0,0.625,1.0,-0.5,0.0,-5.0,2
0.75,-1.5,-0.375,0.5,-2.875,-3.875,7.0,4.25,0
0.75,-0.625,0.0,0.875,9.0,-1.25,-1.0,-1.625,1
4.875,-2.0,0.0,-1.75,-7.0,-7.625,-1.5,1.375,2
-2.75,-4.625,-2.375,-2.0,-0.125,-5.875,-8.125,-4.75,0
-2.0,1.5,1.25,-0.375,1.0,4.75,0.125,-1.125,2
-0.125,-0.375,0.125,0.0,2.75,4.0,0.0,2.25,3
-0.5,-0.375,-1.25,0.0,2.25,1.125,-2.0,-2.5,3
-6.0,0.25,-2.5,-1.25,-0.5,-4.75,-33.25,-14.5,0
-9.875,-1.375,0.375,-1.125,-1.25,-0.625,1.25,-0.125,0
-5.5,-2.0,-0.375,-1.0,1.375,-2.25,-1.5,-1.75,1
-6.75,-4.25,-1.5,-1.0,-2.375,-7.0,-44.75,-10.625,0
-2.375,-1.5,-1.0,-1.25,-1.875,1.5,-1.625,-2.0,1
-5.875,-0.375,-1.0,-0.25,4.375,1.5,2.0,-2.5,2
-0.875,-0.25,0.25,-1.0,-0.5,1.375,16.25,1.625,0
-3.75,-2.375,-1.0,-1.375,0.75,5.75,-1.0,-0.625,1
10.5,0.125,-1.375,-1.25,3.375,5.75,-0.5,1.5,1
0.875,-0.625,0.125,-1.625,0.375,-0.75,-1.625,-3.625,2
-0.125,-2.375,-1.125,-0.375,3.5,2.25,-0.125,2.125,1
-7.5,-8.125,-2.875,-2.125,3.0,2.5,-1.0,-4.625,2
-2.875,-2.0,-0.75,-1.25,-1.0,-1.125,0.0,-1.125,1
-6.25,-2.25,-2.625,-2.5,-4.5,-3.125,-1.75,-4.625,2
0.875,-2.875,-1.875,0.5,-6.75,0.0,-1.125,-0.375,2
0.25,-0.75,-1.0,-1.0,-6.125,-11.25,-1.125,-2.125,3
-0.75,-0.75,-0.375,-0.125,1.0,-1.5,-0.5,-3.875,3
4.875,3.375,-1.375,-2.125,2.125,-0.5,-0.25,-4.0,2
-1.375,-1.0,-0.5,-0.875,1.375,-6.25,-2.0,-1.375,3
-0.75,-1.75,-0.5,-0.375,1.625,0.875,0.25,1.625,1
-2.875,-0.125,-0.25,-1.0,5.25,2.875,-1.375,-1.875,1
5.0,2.875,-1.375,-0.75,-1.625,-2.125,-0.25,-0.625,2
2.375,-0.25,-0.625,-1.25,5.25,2.5,-0.75,-3.625,1
-1.5,-0.75,-1.25,-1.625,-6.5,-9.0,-1.0,-5.0,3
4.75,-2.125,-0.125,-17.125,-2.25,0.875,1.625,0.0,0
-8.625,0.75,-2.25,0.125,-1.375,3.875,1.125,1.875,2
1.625,-2.125,-2.875,-3.25,-9.5,1.25,0.375,-5.375,2
-4.25,-2.25,-0.625,0.125,0.125,0.0,-5.375,-2.625,0
3.5,3.0,-0.125,-0.625,-2.125,-6.375,-2.375,-0.375,2
-2.0,-0.25,-0.75,-1.5,-1.875,2.75,3.75,0.875,0
0.875,0.5,0.25,2.5,-2.5,-1.625,7.625,0.375,0
1.0,0.0,-0.5,0.875,2.5,2.125,-0.625,-1.75,1
-0.5,0.25,0.375,1.0,-6.0,-6.125,0.625,1.625,1
-0.125,1.5,-1.5,-1.5,1.75,-0.875,0.25,-2.75,2
3.375,-0.625,-0.625,-2.25,-0.75,1.875,3.25,5.375,0
0.75,-0.125,0.625,0.25,4.25,9.625,0.25,-2.875,3
0.375,-0.5,0.25,-0.75,-3.875,-4.625,-0.375,-1.75,1
0.125,-4.25,-1.125,-1.5,5.75,6.875,-1.125,-1.125,1
0.875,-1.125,-1.625,-1.75,-0.375,-1.5,5.875,4.75,2
4.5,-0.375,-1.875,-1.875,6.75,10.125,-1.0,-3.5,1
-1.75,-0.375,1.375,0.875,1.875,-9.875,1.75,-6.75,0
0.875,1.125,0.125,1.625,-0.625,-2.25,-6.25,-0.5,0
2.25,3.625,-2.125,-1.25,-3.0,3.875,-0.375,-2.875,2
-3.0,1.125,-0.625,0.625,6.125,-5.625,-0.25,-2.25,2
0.125,-0.375,-0.875,-0.625,2.75,-2.375,-2.375,-2.5,3
-1.25,-1.375,-1.125,-0.25,5.0,3.75,-1.0,-1.5,1
-4.0,-1.625,0.0,0.375,-1.875,-2.75,-0.375,-1.625,1
-0.625,-0.5,0.125,1.25,-1.375,-2.25,-3.75,0.0,0
1.875,-0.25,1.0,5.0,-2.875,-1.625,2.0,-1.625,3
-2.625,-1.125,-1.625,-1.25,-5.5,-0.875,-1.375,-1.25,3
0.375,-0.125,-0.75,-0.25,-1.0,4.625,2.25,0.125,3
0.5,-1.625,-2.125,-0.5,-2.125,0.625,-0.375,5.0,2
1.625,-0.25,-0.25,0.75,-5.875,-4.5,-0.75,-2.25,1
-0.125,1.875,-0.625,-0.125,-0.5,-2.5,-0.375,3.625,2
-2.5,-0.25,0.0,-0.5,-3.25,-5.375,-12.125,-0.25,0
2.25,-0.5,-0.875,-1.125,0.25,-1.625,-2.5,-0.625,3
-6.5,-1.0,-3.5,-6.125,-2.75,-4.125,-20.25,-2.125,0
1.375,-2.75,-0.375,-0.5,-2.875,-8.375,-0.875,-1.875,1
0.375,-0.625,-1.0,0.125,0.875,-1.375,-0.25,-2.75,3
2.5,0.125,0.125,-0.125,0.0,-2.0,-1.25,1.625,1
3.875,2.5,0.75,2.0,0.875,6.5,-1.375,-1.875,0
-3.25,-1.5,-1.125,-1.125,0.75,-4.25,-2.25,-1.375,3
3.25,-0.5,0.0,-0.125,-0.625,4.5,-0.375,1.375,1
-2.0,-1.125,-0.75,-1.875,-3.25,-8.0,-3.125,-3.5,3
-1.25,-0.75,-1.0,-1.625,-1.375,-3.5,0.75,1.625,3
0.375,-4.75,-1.25,0.75,-3.625,-2.75,-1.375,4.0,2
1.25,0.125,-0.125,0.25,-0.125,-4.125,-1.0,0.5,1
-3.25,-1.375,-0.125,-0.25,-0.625,2.25,0.25,-1.75,1
0.75,-1.125,-0.125,-0.25,3.375,3.0,-0.25,-1.0,3
0.875,-1.375,-2.125,-2.5,-1.25,-3.625,-0.75,1.0,2
-2.375,1.0,-0.375,0.0,3.375,-1.75,-1.25,-2.125,2
-1.875,-0.875,0.5,0.125,2.875,0.375,0.875,0.875,1
6.25,-2.5,-1.125,-1.0,0.625,7.625,1.5,3.125,2
-5.375,-0.5,-0.125,1.75,1.75,1.0,4.625,-0.375,0
-1.125,-0.375,-0.875,0.75,2.0,5.875,0.0,-1.0,3
0.125,-1.625,-1.875,-1.625,-2.25,-10.125,-4.5,-1.875,2
-3.125,0.5,-0.375,-2.125,-2.375,6.5,4.375,-4.375,3
-1.375,-1.5,-0.375,-0.25,-0.875,1.875,-0.5,-0.625,3
4.875,-3.375,-1.875,-0.5,-2.25,-2.625,0.5,1.125,2
-0.25,-0.75,-0.625,-1.125,1.375,3.25,-0.875,0.875,1
0.125,1.0,0.0,0.875,4.25,6.25,-0.5,0.625,2
5.875,2.375,-0.25,0.75,0.125,-9.5,1.0,1.625,2
2.0,-3.25,0.375,1.25,6.0,17.0,4.625,-4.0,3
4.5,2.875,2.0,1.875,-0.75,4.0,1.0,1.0,2
4.125,-0.625,-0.5,-1.125,-2.5,-0.5,-0.125,-2.0,1
2.5,-0.125,-0.375,-0.5,-3.375,-7.125,0.25,-1.125,1
-5.125,-1.0,-1.375,-1.375,-0.125,-3.125,-0.375,0.375,0
-0.375,-1.75,-2.125,-0.625,0.25,-15.625,-1.625,-1.5,3
-0.75,-1.375,-1.625,-1.375,-0.125,0.625,2.5,-0.125,0
-1.875,-4.75,-1.375,-0.875,-3.0,-1.25,-1.0,-3.125,2
-2.5,-2.875,-2.125,-2.375,-5.625,-1.75,-2.125,-0.375,1
3.5,-0.5,-0.875,-1.125,3.75,1.5,-1.625,-0.375,1
-1.25,-1.625,-0.75,-0.625,0.5,-2.125,-9.0,-2.75,0
3.0,-0.5,-1.125,-1.0,0.125,-1.0,-2.0,1.25,3
0.0,-0.5,-0.375,0.5,2.625,8.875,0.25,-1.875,3
-4.625,-1.75,-2.0,-1.0,2.5,3.5,-0.25,1.125,1
-1.875,-1.0,-1.375,-0.75,-0.375,-1.0,-6.625,-2.0,0
0.0,-0.875,-1.625,-1.0,1.375,1.75,-6.375,-7.0,0
2.375,-1.125,-1.0,-1.375,-3.625,-8.125,-1.375,-1.0,1
4.125,-3.125,-2.125,-6.125,-3.875,1.5,4.25,0.0,3
-1.5,-0.875,-1.5,-1.5,-5.625,-10.375,-3.75,-3.25,3
-0.5,-1.75,-0.125,-0.25,-1.375,-2.375,0.25,0.0,1
1.25,0.75,-1.125,-0.625,4.25,3.625,0.25,-1.75,2
-3.625,-0.75,-0.25,-0.875,-11.375,-5.625,-2.0,-1.0,1
-1.5,-2.625,-1.0,3.5,1.625,0.375,0.125,-3.25,0
-1.75,-1.375,-1.125,-1.375,0.625,-2.5,-1.0,-0.875,3
-1.25,-0.875,-1.0,-1.25,-4.125,-6.5,-2.375,-2.5,3
-5.25,-2.625,0.625,1.5,-1.25,-4.375,-1.5,1.375,0
-4.5,-1.875,-0.875,-1.0,-1.5,-3.5,-1.125,-2.625,1
1.125,-2.5,1.125,0.125,2.875,2.0,-0.625,-5.25,2
-1.875,-0.125,-0.875,-0.875,-3.375,-3.375,-1.875,-3.125,2
1.625,-0.75,0.125,-0.375,-0.5,2.375,-1.25,0.5,2
-2.5,-1.0,-0.875,-1.75,-1.75,-5.25,-3.0,-4.125,3
-0.375,-1.375,-1.375,-2.875,-3.25,-2.625,-1.125,2.375,0
2.0,-0.5,-0.75,-0.625,-0.125,7.625,-19.25,1.875,0
1.625,0.5,-0.5,-0.375,2.125,2.375,-0.625,-2.125,1
2.0,-1.375,-0.75,0.875,0.875,-17.5,1.75,0.25,3
0.875,-1.125,-0.75,-1.125,-5.125,-12.5,-2.125,-1.875,3
-1.0,-0.875,-1.75,-1.25,1.0,5.0,0.5,-1.625,1
-2.625,0.5,-1.875,-1.875,-3.625,0.75,-1.0,-6.25,2
-0.75,0.125,0.625,1.125,-5.75,-0.875,-0.375,-1.125,3
-4.5,-4.5,-3.75,-0.125,0.875,0.75,-1.125,-3.0,2
12.25,0.625,-0.5,4.75,1.625,1.5,3.0,0.5,0
6.25,1.875,1.875,2.625,-0.25,-4.0,1.75,5.375,3
4.625,9.25,-0.375,-0.125,1.75,-1.375,-0.375,-4.875,2
0.0,-0.875,-2.5,0.875,1.625,2.625,3.75,-4.375,0
0.375,-1.375,-1.0,-1.125,-1.125,2.25,-0.25,-1.75,3
0.0,-0.375,-0.375,0.125,0.875,1.125,-0.75,0.125,3
-1.625,-0.25,-0.875,-0.375,0.125,-4.625,-2.0,-4.125,3
-1.75,-1.375,-1.25,-1.625,0.5,-5.25,-1.5,-2.75,3
-3.75,-5.875,0.75,-0.25,-1.5,-4.25,-1.0,0.125,2
3.5,0.25,0.375,0.875,1.0,5.5,-1.375,-3.125,3
0.375,-1.375,-1.25,-1.75,3.5,6.375,-0.625,-3.125,1
-0.5,-0.875,-2.375,-0.25,-5.75,3.125,0.25,-0.125,2
0.125,-1.5,-1.625,-2.375,2.375,-3.625,1.25,-0.5,3
-6.125,-0.625,-0.75,-0.25,-0.875,0.875,-1.625,-2.375,3
-1.125,-1.375,-1.0,0.0,-0.25,8.875,2.25,-1.375,3
-4.875,-1.0,-0.125,0.5,-3.25,0.875,-0.375,0.0,1
-1.875,-1.125,-0.875,-2.75,1.5,-1.125,-11.0,1.375,0
5.125,-3.125,-3.625,-2.5,-4.75,-11.25,0.0,1.625,2
0.625,-8.125,-0.125,1.0,6.75,-1.375,0.625,-3.25,2
0.25,-2.0,-0.875,0.75,0.375,1.75,-1.375,1.875,2
-0.875,1.5,0.5,0.75,0.125,1.375,1.375,-1.25,2
-4.125,-3.875,-1.75,-0.375,1.25,5.5,0.75,0.875,2
0.375,-0.25,-0.125,0.0,1.375,-2.5,-1.25,1.5,1
-0.375,0.125,-1.0,-1.25,-2.75,-1.625,-1.0,-0.25,1
0.0,-0.75,-1.25,0.0,4.75,-2.0,0.125,1.625,3
-6.5,-1.5,-0.625,-0.75,8.25,4.875,-1.375,-4.75,1
-4.625,-5.0,-2.5,0.75,1.5,-5.125,-21.0,-5.0,0
-3.375,1.375,0.75,1.75,1.25,0.25,-2.25,-0.75,0
0.0,-0.375,-0.875,-0.875,0.625,-4.375,-0.25,3.0,3
1.875,-0.5,-0.625,-1.0,3.125,-0.125,-0.875,-1.125,1
-1.0,-1.0,-1.25,-1.0,-3.25,-16.75,-4.5,1.75,3
-5.5,-2.875,-1.875,-2.125,1.875,-0.75,-2.75,1.125,3
-4.375,-3.25,-1.25,-1.625,2.0,9.75,1.0,-2.625,2
-0.25,-0.625,0.75,0.375,1.75,-5.0,-0.625,0.5,3
-3.375,-8.25,-0.625,-2.0,0.875,1.0,-0.5,0.75,2
-5.25,-1.5,-0.375,-1.5,2.375,1.75,-20.125,-4.25,0
-3.125,1.125,0.875,0.625,-3.25,-7.875,0.0,-0.25,2
4.125,-0.875,-0.625,-0.375,1.375,-5.5,-2.5,2.75,3
-5.25,0.625,0.125,-0.25,-0.25,-2.5,-0.875,-2.75,2
-1.125,-0.75,-0.875,-0.625,6.25,7.25,2.5,-1.0,2
-0.125,-1.125,0.625,-0.5,1.375,-1.5,8.875,1.625,3
-2.125,0.25,-0.25,-1.25,-1.75,0.375,-0.75,2.5,2
-4.375,-1.25,-0.25,-0.625,4.5,1.75,-0.875,-0.875,1
-1.875,-0.25,-1.0,-2.5,0.5,-1.0,3.875,0.75,0
-2.75,0.125,-1.0,-0.5,3.125,-4.625,-0.625,-3.125,3
1.0,-0.5,-0.5,0.5,-3.625,-4.875,-0.75,-1.0,1
5.875,0.0,-0.25,-1.0,-1.125,-0.625,-0.625,-1.75,1
2.375,-0.375,0.875,0.125,5.125,-1.5,2.0,-1.0,2
3.625,-0.375,-0.375,-0.875,-2.5,-2.5,-1.0,0.375,1
7.5,0.125,-0.5,-0.375,3.875,-1.625,-1.875,3.375,0
0.625,-0.875,-0.5,-1.25,-1.0,1.125,0.0,-1.125,3
0.5,0.0,-0.25,0.125,0.0,7.375,0.25,-1.25,3
-1.75,-0.375,-0.5,1.5,1.125,1.875,0.875,4.125,0
-3.75,-1.0,-0.25,1.875,2.75,-2.5,-2.25,-6.25,3
-4.625,-1.5,-1.5,-0.25,4.625,-0.25,-2.25,-1.5,3
-3.75,-4.125,-1.375,-0.125,5.875,5.875,1.125,-0.625,2
-1.0,-0.625,-0.375,-0.75,0.125,-5.0,0.625,0.625,3
-0.25,1.0,0.75,1.625,1.375,6.875,0.25,-3.25,3
1.875,-0.875,-1.125,-0.75,-1.25,-5.0,-0.625,-1.0,1
1.75,-1.125,-1.5,-2.875,-3.75,-6.125,-2.25,3.875,2
-1.875,-1.0,0.125,2.125,-2.5,-4.5,-24.0,-6.375,0
0.375,-0.125,-0.625,-0.25,4.875,0.625,-1.75,-1.375,3
-4.875,-5.5,-2.125,-1.25,-1.0,-2.625,-1.25,0.0,2
-0.75,-0.5,-0.75,0.125,2.625,-1.875,-4.0,-4.875,0
-0.375,-1.125,-1.625,-3.5,0.625,0.75,5.5,2.375,0
1.25,2.625,-1.25,0.75,7.0,-0.75,-1.375,-2.0,2
-0.125,-0.125,-0.125,0.5,5.125,2.375,-0.625,-0.75,1
-5.125,-4.0,-2.25,-1.75,-2.5,-9.875,-1.75,-6.0,2
-2.875,-0.75,-0.875,-1.0,2.875,-0.75,-1.125,-1.875,1
4.75,13.25,0.75,0.375,-6.25,-3.0,-1.5,-0.625,2
-1.375,-0.5,-0.25,-0.25,2.0,-2.875,1.125,1.875,3
-1.375,-1.375,-0.625,-0.75,1.875,1.625,-1.0,-1.25,1
5.125,-0.625,-0.625,-0.25,-1.5,0.0,4.75,4.875,0
-1.0,0.125,-0.625,-1.375,0.25,5.875,6.75,1.625,0
-1.125,-0.5,0.625,0.375,-6.75,-6.875,-2.125,-1.375,0
1.0,-1.0,-1.375,-0.75,-0.375,-2.25,-1.625,-0.625,3
-4.875,7.125,2.5,0.125,-9.125,-2.25,-2.625,-0.25,2
1.875,-1.375,-1.25,-1.0,0.5,-3.75,-2.0,0.875,3
-4.25,-1.125,-1.0,-0.25,-9.125,-2.875,-1.125,-1.25,1
0.75,-0.75,-0.25,-0.25,1.875,4.25,-2.25,-4.625,2
-3.625,-1.0,-0.5,-1.75,-5.625,-3.875,-0.125,-0.75,1
1.125,-0.25,-0.5,-0.25,-6.375,-0.25,-0.25,0.375,1
3.0,-7.125,-0.5,-0.875,-9.5,-1.875,0.125,1.875,2
-4.0,-1.625,-0.875,-1.375,1.375,0.625,-0.375,-3.625,3
3.125,-1.125,-0.625,-2.75,-1.25,-1.25,-21.625,-0.25,0
-1.625,-1.75,-1.5,-1.5,0.625,2.125,-0.5,0.875,1
2.125,0.0,-0.625,0.125,8.25,3.75,-0.375,-0.625,1
-6.375,-0.5,-0.875,-1.0,-8.75,-0.625,-1.25,-1.75,1
-6.625,-0.625,-0.375,-0.5,-4.5,2.0,-0.5,-3.25,1
-7.875,-9.0,-0.25,0.0,0.625,-1.125,-3.25,-3.75,2
5.875,-9.25,-3.0,-0.375,2.375,2.5,-0.25,-0.5,2
-2.5,-0.5,-1.125,-0.875,-0.875,-0.5,-1.0,-0.25,0
2.125,0.25,-1.5,-0.75,2.75,0.75,-2.125,-3.0,2
-0.125,-0.375,-1.0,-1.375,-1.25,-8.625,-1.5,-1.75,3
-1.0,-1.0,-2.125,-0.125,2.625,-0.75,-1.5,-5.0,2
-4.125,-1.0,-1.0,-3.25,-5.25,-5.125,-19.375,-2.125,0
0.75,0.5,-0.25,0.0,-0.75,1.25,11.375,4.125,0
0.125,-0.375,-0.125,-0.125,-0.5,-0.25,-0.125,-0.5,3
-1.375,0.5,-0.875,-1.875,1.125,-0.625,-6.875,-2.625,0
3.125,-0.375,0.375,2.0,1.875,1.125,-3.0,-1.625,0
5.25,2.625,-0.125,-1.875,-2.25,-3.375,0.375,9.625,2
-3.25,-0.75,1.625,0.375,7.5,4.875,-1.125,-0.625,2
-1.375,-0.25,-0.375,-0.625,-1.25,0.125,0.75,-3.25,3
7.5,-1.75,-2.0,-0.875,3.125,-1.375,-0.75,-1.75,0
-4.125,-1.25,-0.375,0.25,4.25,-1.125,-0.375,4.375,1
-4.625,-7.75,-1.75,-2.25,2.25,1.125,-0.875,-4.0,2
-6.625,-1.25,0.25,0.125,-0.875,-0.875,-0.25,-3.25,3
-1.0,-4.125,-3.5,-3.75,-3.0,-13.875,-2.875,-2.375,2
1.625,-0.375,0.125,-0.375,-2.625,-2.625,0.5,0.875,3
2.5,-4.625,-2.5,-1.5,-2.125,-2.375,-0.75,0.75,2
-0.75,-1.125,-1.75,-0.625,1.25,3.0,-3.75,-0.625,3
-7.875,-1.0,-0.125,-3.875,-2.875,0.75,6.25,-0.5,0
-1.75,-1.25,-1.5,-1.75,2.375,-4.0,-1.5,-1.875,3
0.5,0.375,-0.25,0.5,-1.5,1.875,-2.875,-1.25,0
-5.875,1.0,-1.25,0.25,0.5,3.875,-2.0,-2.125,2
-2.625,-1.625,-0.5,2.125,2.125,-0.5,2.375,-2.25,3
0.625,-1.0,-1.25,-0.625,-0.5,1.875,2.25,4.875,3
6.125,2.875,-0.75,-0.75,-0.375,-6.5,-1.125,-4.375,2
-2.875,0.0,0.375,-0.25,-2.125,-2.875,-0.25,-1.375,1
-3.875,-1.0,-0.875,-2.875,0.125,-0.625,-0.5,7.625,3
3.625,1.25,-0.75,-0.25,4.125,-0.125,-0.125,-0.375,2
-0.5,-1.0,-0.375,-0.375,0.125,0.75,1.375,-1.75,2
-1.625,0.0,-0.5,-1.125,-1.5,-8.625,-1.375,-0.625,1
-1.25,-8.0,-1.5,-3.0,-0.375,-0.5,-3.375,-3.875,2
0.5,-1.5,-1.625,-1.375,-0.25,-0.375,-1.0,-1.375,1
-1.625,1.875,-0.875,-0.75,-2.625,-0.125,0.5,-4.125,2
2.0,2.625,0.375,0.625,-0.625,2.5,0.125,-1.25,2
2.875,-2.625,-1.375,-1.125,2.0,16.75,3.25,-3.875,2
-2.0,0.125,0.125,-1.875,-4.5,-1.625,-0.625,-1.0,1
-0.875,-1.0,-0.25,-0.25,0.125,-3.75,-1.5,-2.125,3
-3.0,-1.0,-0.875,-0.75,1.5,1.25,-0.625,-0.25,1
2.0,-0.75,0.75,1.875,5.125,-2.625,-2.0,0.375,3
-2.375,0.375,-2.0,0.25,0.0,8.375,-0.625,-3.75,3
0.25,-2.25,-0.625,-2.125,-3.0,-5.125,0.375,-1.5,3
0.875,-1.0,-1.125,-0.875,-3.0,1.5,-5.375,-2.75,0
0.5,1.375,-0.375,-0.375,1.125,5.125,-0.125,-0.625,3
0.125,4.375,0.75,-1.0,-0.875,-7.125,-1.25,0.875,2
-6.875,-0.75,-1.375,-0.25,2.25,0.375,-8.875,-0.625,0
1.625,0.0,0.0,0.75,3.5,2.25,-1.75,4.875,3
-2.25,-1.125,-1.25,-0.875,-2.5,-2.625,-1.125,-2.0,1
-2.125,-1.5,-1.125,-1.0,1.25,1.625,-0.375,-1.75,1
4.75,1.0,0.125,0.5,0.625,-6.375,-0.375,1.25,1
1.375,-0.875,-2.625,-2.5,-2.0,-3.625,0.375,-4.125,3
1.625,2.0,-0.75,-5.5,4.625,5.25,0.75,4.5,0
1.0,-0.75,-0.375,-0.625,-1.0,7.625,1.875,1.75,3
0.75,-8.25,-3.75,-0.5,4.375,5.125,-0.875,-1.375,2
-0.25,-0.875,-1.0,-1.75,1.125,2.0,-0.375,-1.75,1
-4.625,1.75,2.25,0.875,-1.75,-6.5,-0.375,-3.625,2
-1.5,-1.0,-1.125,-1.0,4.625,3.875,-1.0,-3.125,3
0.625,-1.0,-0.125,0.0,0.0,0.0,-0.875,-1.875,3
-0.25,-1.125,-1.25,-0.625,0.5,5.125,0.375,-0.25,3
-1.375,-0.375,-1.5,-1.25,0.25,-0.125,0.625,-0.75,0
-2.875,-0.75,0.0,-0.375,3.375,2.875,-1.5,-1.875,3
1.875,-0.375,-0.625,-1.25,2.125,6.125,0.125,1.5,1
-2.625,-0.25,-0.25,-0.75,-1.75,-19.25,-4.0,-2.25,3
-3.25,-1.125,-1.25,0.0,-0.375,0.625,-18.5,-3.625,0
-7.125,-1.375,-1.25,0.5,3.375,3.25,1.625,-0.375,1
-0.75,-1.375,-0.75,-0.5,-0.625,1.25,-5.25,0.625,0
-7.625,-1.125,0.25,1.375,-1.875,-0.875,-0.875,-1.5,1
1.0,-2.0,-1.375,-1.375,2.625,4.5,-1.25,-1.0,1
-2.75,-1.75,-1.0,-0.375,3.625,-1.5,-1.0,-1.0,3
-1.125,-0.5,-0.875,-0.375,0.0,6.5,-0.875,3.375,3
-5.25,0.0,0.25,1.625,-1.625,-7.25,-0.875,0.125,1
-4.5,-2.75,-2.0,-3.125,0.625,0.875,-0.625,-1.625,1
0.25,-3.625,-1.375,0.0,2.0,5.5,-0.125,3.125,2
-3.875,-0.25,-0.75,0.5,2.5,-4.125,-0.5,-0.25,2
1.125,-1.0,-0.875,-1.625,5.0,6.125,-0.25,-0.5,1
-7.5,-0.875,-0.25,0.375,0.125,2.625,-1.0,-2.5,1
6.0,-4.25,-3.75,-1.375,-3.125,-6.5,5.75,-6.5,0
-2.5,-4.0,-0.125,1.875,0.625,-3.75,-2.375,2.5,2
-0.375,0.25,-0.5,-0.5,0.0,1.875,-1.0,-0.75,3
-0.125,-2.375,-1.75,-0.25,1.0,6.5,-1.75,2.5,3
0.5,-0.5,-1.375,-0.75,2.625,-7.0,-2.375,-1.0,3
-3.25,-0.75,-0.125,0.25,4.0,4.375,-0.125,0.5,1
11.25,2.375,-1.875,-0.25,-4.75,-4.75,0.25,4.0,2
-2.0,-4.875,-2.5,-2.375,-4.125,-1.625,-11.5,-1.0,0
0.5,-0.25,1.0,0.5,1.375,2.625,-0.125,-0.125,3
0.625,-2.875,-1.125,-0.875,-1.125,4.5,0.0,0.875,2
4.875,-0.125,0.25,2.25,-1.5,1.25,-1.0,4.0,0
0.375,6.75,1.25,-1.5,-1.375,-2.25,-6.75,-5.375,0
-3.0,-1.625,-0.875,0.0,1.875,4.75,0.0,-2.625,3
0.25,0.5,0.25,0.0,-6.125,-3.875,0.875,1.875,2
-4.25,3.625,0.25,0.125,-3.25,-13.0,-1.75,-0.75,2
-3.875,-1.25,-1.875,-1.125,2.875,2.75,2.875,-1.5,0
-3.375,-6.5,-0.75,-1.875,-1.625,-4.25,-1.625,0.375,2
-11.125,-1.0,-0.375,-1.375,-2.125,1.375,-9.625,-2.625,0
-0.625,0.0,-0.75,-0.5,-4.875,-2.5,-0.25,0.125,1
-5.625,-1.75,-1.125,-1.25,-3.375,1.375,-0.5,-1.5,1
-0.75,-0.125,-0.5,-1.125,3.25,2.125,-0.875,-0.5,1
-1.25,-1.375,-1.625,-0.375,-2.875,4.0,0.25,-1.125,1
-1.0,-2.0,-1.5,-2.375,0.125,-0.75,-8.625,-2.0,0
3.25,-1.125,1.25,-0.375,-1.125,0.25,0.375,0.0,2
0.375,-0.125,-0.75,-0.125,2.125,6.875,1.75,0.75,3
1.25,-6.25,-1.875,1.125,2.625,0.25,1.875,-0.75,0
0.375,-2.375,-1.125,-1.25,-0.75,-7.25,-1.5,-3.125,2
-1.0,0.0,-0.375,0.0,-0.625,5.25,-1.0,-0.25,3
-1.0,-1.0,-1.5,-0.5,-2.375,-2.5,0.875,1.625,3
-3.375,4.875,0.625,0.125,2.75,13.125,-16.75,7.25,0
0.625,-1.75,-0.75,-1.5,0.75,-5.5,-0.875,-0.875,3
-1.625,-0.75,-1.75,-1.75,-1.25,0.875,0.0,-0.625,2
0.125,-1.0,-2.375,-1.5,0.125,-5.625,-3.625,-0.75,0
-1.25,-0.5,-0.5,0.125,-2.25,-0.375,-0.625,2.125,0
2.75,0.0,-0.375,-0.125,0.0,-1.375,-0.25,-1.25,1
-2.875,10.875,-0.5,0.125,1.25,3.625,0.25,-1.75,2
1.875,0.125,-0.625,-0.75,0.625,2.625,6.375,-3.375,0
3.5,-1.75,-0.125,-2.5,0.75,0.25,4.25,1.75,0
-0.875,-0.5,-0.875,-1.625,-5.0,-1.875,-0.75,0.75,1
3.625,-2.0,-1.5,-1.25,-0.125,-2.375,-7.875,-7.625,0
-1.75,-0.25,-0.875,-0.25,2.125,4.5,1.25,0.5,3
-3.125,2.75,-0.125,17.375,-0.5,-2.25,1.25,2.625,0
-1.125,-0.625,-0.75,-0.375,-0.75,3.5,-0.625,-1.0,1
-5.875,-1.5,-0.375,-0.375,-0.875,-0.25,-1.625,-0.875,1
-2.125,-1.375,-1.625,-1.875,-1.125,1.375,-1.75,-1.875,2
-2.875,0.75,-0.375,-1.0,-4.75,-4.375,-1.875,-0.25,2
-1.25,0.125,-1.75,-0.875,-1.25,-3.0,0.75,2.5,3
0.25,0.125,0.5,-0.75,1.75,0.125,-3.5,-3.5,0
0.0,-0.75,0.0,-0.125,-5.5,-3.75,-0.625,-0.75,1
4.625,3.125,-1.375,0.625,-0.875,3.125,0.875,1.75,2
0.5,-3.75,-2.0,-2.0,0.375,0.0,2.0,3.125,2
2.375,-4.25,-0.375,-0.875,1.75,9.375,0.875,-0.75,2
-6.75,-1.875,-2.375,-2.625,0.875,0.75,3.75,-3.75,0
0.125,-2.5,-0.25,1.5,2.125,5.375,4.25,0.625,0
-0.875,-3.375,-1.625,-1.25,-3.125,0.0,-1.125,0.5,0
-1.875,-1.25,-1.0,-0.375,6.375,13.0,1.125,0.0,3
-0.875,-3.625,-1.875,-0.75,-3.125,2.625,-5.25,-1.875,0
0.875,0.875,0.0,-0.875,-2.0,-1.0,-4.125,2.25,0
-1.375,-0.75,-0.75,-0.875,1.5,5.25,-0.375,-1.25,3
-1.0,-0.125,-2.25,-2.625,-1.25,-2.25,-3.375,-1.0,2
9.875,0.875,-1.0,0.375,-0.25,-6.0,-3.25,2.25,0
0.125,0.125,-0.25,-0.125,-1.75,-1.5,0.375,0.625,1
2.0,0.875,0.875,-3.625,-4.875,-1.875,7.25,2.375,0
-0.5,-0.625,0.375,-0.75,-8.5,-16.125,-1.375,-1.75,3
-0.25,-3.0,-1.375,-3.0,5.625,6.875,3.125,-0.375,3
-1.625,-4.875,0.375,1.0,-0.875,-0.25,-3.875,2.625,0
-2.0,-1.75,-0.875,-0.875,-4.5,-8.0,-2.375,-1.25,3
4.875,0.875,0.625,1.875,1.25,7.375,-6.875,6.625,0
-0.75,-1.25,0.625,1.0,-1.25,-6.0,-1.0,0.625,1
1.25,-0.75,-1.5,0.5,-0.25,4.125,4.0,1.75,0
-0.5,0.375,-0.25,-0.75,1.375,-0.5,-0.625,-0.625,2
4.5,-0.375,-0.5,-1.125,-2.125,-3.625,-0.375,3.0,1
-3.0,-0.625,-0.625,-0.625,4.75,-0.25,-0.25,0.25,3
1.0,-0.25,-0.625,0.75,1.25,7.25,-0.5,-0.75,3
0.875,3.375,0.0,-0.75,-10.625,0.75,-0.125,1.75,2
2.625,-3.375,-2.375,-2.0,0.125,-1.75,-1.125,-2.75,2
-1.625,-0.25,-1.0,-1.0,-1.625,-0.5,-1.5,-1.0,2
5.125,0.625,-0.125,-0.25,5.25,1.75,0.0,3.5,1
3.375,3.875,0.125,0.25,-2.25,-2.0,-1.5,1.5,2
-8.125,-2.25,-1.625,-0.875,1.25,2.375,0.875,-0.625,2
-4.875,0.0,-1.25,-1.5,0.75,0.0,3.125,6.875,0
0.625,0.0,-0.75,-1.125,-2.125,-2.5,-1.75,-2.375,1
-1.25,-0.75,0.25,0.0,-0.25,-2.875,-0.5,-0.875,3
-0.375,7.375,-1.75,-1.625,4.75,0.0,-19.125,-2.75,0
-7.375,-2.0,-2.25,-2.375,1.25,0.25,-0.5,0.25,1
-0.25,0.125,-0.5,0.0,-1.0,0.875,-1.25,-4.875,3
-2.5,-3.875,-2.5,-0.875,1.875,0.375,-5.5,-3.375,0
-1.5,-2.375,0.0,-0.25,0.0,1.25,-3.0,-1.875,2
3.5,0.5,0.25,0.375,-1.25,3.875,1.25,2.375,0
-1.0,-0.5,-0.875,-0.625,0.5,3.125,1.625,0.625,3
-2.125,-2.75,-2.375,-2.75,-2.875,-3.375,0.5,-1.625,0
5.25,-0.25,-0.375,-0.375,0.625,3.625,0.625,2.125,1
-0.875,-1.625,-1.375,-0.5,-1.0,-2.625,-0.5,-1.0,2
0.75,-0.75,-0.625,-0.25,4.875,3.125,0.25,1.625,1
2.375,-1.0,-0.875,-0.125,-0.25,1.25,-0.625,-0.25,1
-3.0,-0.625,-0.875,-1.125,-2.625,-1.75,0.375,0.0,1
-1.75,-0.875,-0.75,-0.75,1.375,-0.125,-1.0,0.625,1
1.375,-0.625,-0.875,-1.625,3.875,1.875,-0.75,-1.0,1
3.125,-1.0,-1.375,-3.375,-1.75,-4.625,-9.875,0.375,0
0.25,-0.25,-0.25,-0.375,0.25,4.0,0.125,-1.0,3
-5.125,-1.5,-1.5,1.5,0.0,-0.5,-1.375,-1.0,1
-0.125,-0.75,-0.875,-1.125,-1.25,-1.5,-1.75,-3.0,1
-4.5,-0.75,0.375,2.0,2.875,2.625,-4.75,-5.0,0
-1.0,-1.0,-0.75,-1.375,-9.25,0.125,-0.625,0.125,2
-0.75,-0.625,0.125,2.25,0.5,1.625,-7.125,-0.5,0
1.125,0.5,-1.375,-1.25,0.625,2.625,-2.375,-8.75,2
5.75,2.375,0.125,-2.125,-4.0,-0.75,-1.625,-1.625,2
5.625,0.25,0.0,-0.625,1.875,7.375,0.25,3.25,2
1.375,-0.875,-0.25,-0.75,-0.625,2.375,-1.375,0.625,1
5.125,0.75,-1.75,-4.125,4.75,1.25,13.125,9.5,0
-4.125,0.25,0.0,0.125,1.0,-6.75,-3.25,-4.75,3
1.125,-1.0,-0.875,1.125,-0.125,-1.125,-4.0,-1.5,0
3.25,-0.125,0.625,1.125,1.625,-0.75,-17.875,0.125,0
-1.5,-0.625,-0.625,-1.125,-1.125,2.75,-1.0,0.25,3
2.0,-0.5,-1.625,-3.25,-7.75,-2.25,-1.0,-1.75,1
-1.0,-0.625,-1.25,-0.875,1.625,2.625,-0.5,-0.625,3
-0.25,0.25,0.0,0.25,-3.375,-6.0,0.0,-4.125,1
-2.375,-2.125,-1.5,-1.25,3.125,2.75,-0.625,-4.0,2
-2.5,-0.5,-0.625,-0.625,-0.875,-4.25,-1.625,0.75,3
6.125,2.875,1.125,-2.125,-6.0,-7.125,-4.75,-3.75,2
1.25,13.25,2.125,-0.75,-5.125,-5.375,-0.875,-0.5,2
-1.875,-0.75,-1.0,-0.25,0.5,2.375,-2.5,-3.125,3
-1.0,-1.125,-0.25,0.75,1.25,0.0,-2.75,-3.0,0
5.5,1.875,0.875,0.75,-3.0,-14.375,-0.625,1.25,1
4.75,2.0,-0.5,0.125,-5.75,-4.25,0.75,9.625,2
1.875,-0.875,-0.5,-0.75,-0.5,-6.0,0.875,3.0,3
-3.5,-0.875,-1.875,-2.625,-2.125,-1.875,1.125,-3.0,3
0.125,0.875,-2.0,-1.25,4.25,7.375,-0.125,0.125,1
-1.25,1.0,-0.5,-0.75,-1.125,-1.875,3.0,-3.375,0
-9.625,1.25,0.75,-0.875,-0.125,1.25,2.0,-0.875,0
-1.625,-0.375,-0.5,-0.625,-1.875,-2.25,-0.5,-1.25,3
-1.375,-0.875,0.125,-4.625,1.5,-1.0,-1.75,-3.125,1
4.0,-0.375,-0.25,0.125,-2.0,-2.75,-1.0,-0.5,1
-0.25,-2.0,-1.25,-1.625,0.875,1.25,-0.375,-2.5,3
-2.875,-2.125,1.0,0.875,1.25,-3.5,9.75,0.875,0
4.75,-1.625,0.5,-2.875,-2.875,0.25,2.625,-0.25,0
4.75,1.375,1.125,1.0,-2.625,6.875,3.625,1.375,3
-3.375,0.5,-0.875,-1.25,3.125,-3.0,-7.375,4.375,0
-2.25,-0.25,-1.0,-1.0,0.5,4.125,0.25,-1.375,3
-3.75,-6.625,-0.875,-0.875,-0.25,-1.75,-2.0,-4.0,2
1.75,-1.125,-1.125,0.25,0.625,-0.625,0.75,0.375,2
4.5,-1.5,-2.75,-2.375,-3.5,-3.625,-2.75,0.125,2
-5.125,-1.0,-0.375,-1.0,0.5,3.375,-0.25,-2.125,1
2.0,-1.75,-2.125,-0.75,1.75,-2.0,-2.5,-0.375,3
0.25,3.0,-0.625,1.0,-0.875,5.125,1.25,4.125,2
2.75,-0.625,-1.625,-1.875,-3.25,2.125,-0.625,2.5,1
2.375,-0.25,0.125,0.0,-0.25,2.125,5.25,3.625,0
4.5,0.375,-1.125,0.0,3.5,-0.625,-0.625,-0.75,1
-2.5,0.0,0.875,2.0,-1.5,-2.375,-6.125,-1.875,0
-6.5,-0.25,0.0,0.125,0.25,-4.75,-1.5,-4.125,3
-3.5,0.0,-0.25,-0.625,8.375,1.375,-0.5,0.875,1
-6.875,-3.125,-0.625,-0.125,1.75,-4.25,-2.125,-1.125,1
-7.75,-1.125,-1.0,-1.625,1.75,4.75,-1.375,-5.625,1
0.625,0.875,-0.625,-0.75,0.0,-1.5,0.75,-1.0,0
0.625,5.625,-0.25,-0.125,6.375,2.125,-2.0,-2.5,2
-5.25,0.875,0.375,-1.25,1.625,-1.75,-3.0,-4.5,0
-1.375,-0.375,-1.125,-1.625,-0.875,-2.625,-1.25,-2.375,1
3.0,-0.125,-2.625,-2.125,2.25,10.375,2.125,2.25,3
-1.25,-0.125,0.75,1.25,0.5,6.125,-1.125,-4.5,3
3.125,0.25,-0.875,-2.25,-7.125,-6.0,-2.125,-6.5,2
-0.375,-0.5,-0.75,-0.5,-5.5,-1.5,-0.375,-0.5,1
-0.375,-0.75,-0.125,0.375,2.375,-3.25,-10.0,-9.375,0
-2.375,-0.875,-0.375,-0.875,0.625,1.25,-0.25,-2.5,3
-1.875,-0.125,-0.5,-0.875,-1.0,-7.625,-1.75,1.375,3
2.25,-1.125,-0.875,0.125,-2.125,-2.875,-20.75,-4.75,0
5.5,0.625,-3.125,-1.625,1.875,6.375,-2.125,2.0,2
-3.25,-0.75,-1.375,-0.625,2.125,-0.375,6.25,7.0,0
-0.875,-0.75,-1.75,-2.125,-7.25,-4.875,-1.625,3.125,2
-0.375,3.625,-0.75,-0.25,-0.75,-1.875,0.375,1.5,0
-0.375,0.25,-0.25,0.25,0.75,1.25,6.125,1.5,0
1.75,0.0,0.125,2.25,-0.875,-2.375,-28.5,-1.75,0
-4.375,-1.125,0.125,-0.5,-1.5,0.125,-5.625,-4.375,0
6.375,1.375,-0.875,-0.375,-5.625,-0.25,-1.125,-0.875,2
-0.875,-0.875,-0.625,-0.25,2.25,0.625,-2.375,-1.5,2
1.75,5.125,0.0,1.25,0.125,0.25,0.5,-2.125,2
-1.5,3.75,-0.125,-1.625,0.25,-0.25,-0.875,-0.875,2
-1.875,-0.75,-0.375,0.125,-0.375,-2.5,-5.125,2.875,0
-1.375,-1.75,-1.125,-0.875,3.5,4.875,-0.5,-4.875,1
-4.0,1.0,-1.5,-3.5,3.625,0.625,3.5,-3.0,0
-0.625,-1.375,1.75,-0.5,-4.125,2.0,1.75,-0.875,2
2.0,-0.625,-0.875,-0.375,1.0,0.75,-0.625,1.25,3
-2.0,-1.125,-1.375,-1.0,-1.875,1.25,-0.25,-1.25,1
3.5,-0.375,-1.5,0.625,5.125,5.125,-9.375,1.75,0
-0.375,-2.0,0.625,-0.25,-0.125,6.75,2.0,-1.0,2
2.125,8.375,0.75,0.75,3.125,-7.75,-0.75,-0.375,2
-2.125,0.0,-0.875,-0.125,-4.75,-5.875,0.5,-5.0,3
-0.875,-0.625,-0.875,-0.5,3.125,0.125,-0.625,0.125,1
3.125,1.375,-0.125,-0.625,-1.25,-7.625,-28.25,-12.5,0
-2.25,-0.125,-0.625,0.5,-0.625,-2.625,-3.5,-1.875,0
3.0,0.0,-0.125,0.25,-0.625,-2.375,-0.875,1.25,1
2.25,-0.75,-0.375,0.375,-1.5,-9.0,-4.75,-2.5,3
0.25,-0.625,-1.0,-0.625,6.25,6.375,-1.5,-1.125,1
-1.25,-0.625,0.0,0.5,-6.375,-10.75,-0.25,-0.5,1
-1.375,-0.125,1.5,-0.375,-3.0,-0.875,5.25,0.75,0
2.375,0.25,-0.875,-0.375,-3.125,-2.0,0.125,3.0,1
-2.375,-1.625,-0.25,1.25,3.375,-1.875,-7.0,-5.25,0
0.0,-0.625,-0.875,0.5,5.125,7.625,1.75,-0.375,3
-0.375,-0.875,-1.0,-1.875,1.625,-0.25,0.0,-0.875,1
-7.125,-4.375,-1.75,-0.875,0.0,3.625,-23.875,-9.625,0
2.25,0.0,-0.375,1.0,5.75,12.25,7.75,10.875,0
-2.625,-2.875,-0.625,-1.25,-0.25,1.375,6.5,1.375,0
-4.75,-2.25,-0.375,0.75,-1.5,7.875,0.625,-3.375,2
-0.375,-1.5,-0.375,-0.625,-1.375,-5.25,-1.125,2.375,3
2.0,-0.625,0.125,0.625,-0.25,1.25,1.125,-1.625,0
-3.75,-0.125,-0.25,-2.375,-1.75,2.0,1.0,-0.5,3
-4.625,-6.25,-1.875,-2.0,-5.125,-3.75,-1.0,0.875,2
-1.875,-1.75,-1.75,-1.125,6.125,8.25,-1.25,-3.875,1
0.625,-0.5,-0.875,-1.0,-1.25,-0.25,0.375,-0.75,3
0.75,-0.875,-1.25,-0.625,2.5,3.625,-0.75,0.125,1
-0.25,-1.375,-1.125,-0.25,-0.25,-1.0,-1.5,-1.625,0
-0.75,2.125,-2.5,-0.75,-3.25,-4.5,-1.25,2.375,2
6.25,-1.625,0.375,0.375,0.125,3.875,-7.875,-1.5,0
-4.875,6.0,-0.375,-3.125,1.25,-3.0,-0.625,-3.5,0
3.5,0.0,-0.75,-1.25,1.875,3.0,-1.375,-0.25,1
0.25,-0.25,0.0,0.25,2.0,4.5,2.5,-1.625,3
2.125,4.25,-0.375,1.25,0.875,3.625,5.625,4.125,0
0.625,-0.875,-0.625,-1.25,-1.125,-1.25,-1.25,-1.25,1
5.625,0.25,-1.0,-1.5,6.5,7.25,-0.25,1.125,1
1.125,-0.625,-0.125,-0.125,2.375,-3.25,0.375,-0.125,2
-0.375,-0.5,-0.5,-0.625,-1.25,-1.625,-1.25,-1.25,3
-0.125,-1.5,-1.875,-2.25,-1.0,-1.75,-1.25,-2.25,3
0.375,-0.75,-0.875,-0.625,1.0,1.25,-0.625,0.375,1
4.375,1.125,-0.5,1.625,-1.0,-5.625,-18.0,-4.25,0
-4.75,-0.5,-0.5,-1.0,2.0,-2.625,-1.625,-2.375,1
-2.125,-1.75,-1.875,-2.75,0.25,6.75,0.25,-1.5,3
-4.625,-1.125,-0.5,2.0,-2.375,-6.125,-1.5,-5.5,3
-6.375,-4.125,-0.125,1.375,0.625,1.875,-0.625,-1.875,0
-1.625,-0.875,-0.625,-1.125,-3.875,-3.75,-1.0,1.5,1
-1.0,-1.875,-0.75,-2.625,-2.875,-0.25,-5.5,-1.875,0
-2.375,2.375,-1.75,-0.625,1.75,1.875,-0.5,-2.875,2
-2.875,-1.125,-0.625,-1.375,2.25,-2.125,-1.25,-3.375,1
4.5,5.0,-0.75,-1.625,-4.125,-6.375,-1.5,3.625,2
-3.125,-0.875,3.625,-2.875,4.125,1.125,-1.75,-2.625,0
-0.875,-1.375,-1.125,-0.875,-0.75,0.375,-0.5,1.25,1
-3.5,1.375,-0.125,-1.375,-1.875,-5.875,-6.375,-4.0,2
2.125,-2.0,-1.5,-1.75,-1.25,4.0,-1.5,1.0,2
-1.0,-0.5,0.0,0.375,3.5,7.875,0.5,-2.125,3
0.75,5.5,0.25,0.375,1.375,-3.5,-1.875,1.375,2
2.0,-1.0,-1.375,-0.375,-0.625,0.625,-4.875,-2.75,0
-1.625,3.5,-0.375,0.25,4.125,0.5,1.875,-3.875,0
-0.625,-4.5,-2.25,-2.25,-2.125,-1.125,0.25,-1.375,2
-0.25,-0.25,-1.375,-1.0,2.0,5.5,-1.375,-5.75,3
-4.125,-1.375,-1.125,-1.5,-5.75,-2.375,-1.125,-2.0,1
-5.0,-2.625,0.125,0.25,5.875,-0.5,-2.375,-4.375,2
-0.875,-7.875,-2.375,-0.25,2.875,-1.25,7.625,1.25,0
-0.625,6.0,1.875,1.25,-1.5,0.375,0.125,2.625,2
-4.875,3.25,-0.75,-1.125,-0.375,-3.25,-1.0,-6.25,2
-14.0,-0.125,-1.75,-3.0,-4.5,-12.75,-32.125,-17.25,0
0.375,0.0,0.125,0.75,-2.5,-2.375,0.25,-1.0,1
2.375,-0.5,-1.125,-1.375,-3.25,-5.125,-2.125,-0.125,3
2.625,-1.0,-1.25,-1.25,5.0,3.125,-1.375,-0.375,1
1.125,-0.875,-1.125,-2.375,-2.125,1.375,-3.5,6.75,0
-1.25,-1.875,-1.625,-0.375,-0.625,0.125,-0.75,-1.0,2
0.75,-2.875,-1.75,-0.125,-1.0,-0.5,-2.75,8.0,0
-3.75,-1.5,-1.625,-1.125,-3.375,-4.375,-8.25,-4.375,0
-0.375,-0.125,-0.75,4.25,-1.625,2.625,0.5,0.25,1
-3.625,-0.875,-0.125,-0.25,-3.125,-4.25,-0.75,-2.25,1
1.0,-0.125,-0.125,0.25,-3.625,-3.5,-0.75,2.375,1
0.875,-0.375,0.25,-0.625,-1.0,-2.375,-1.25,2.25,0
3.5,-0.375,-1.125,-0.625,-0.125,1.25,0.375,0.25,0
-0.25,-1.75,0.75,0.75,-0.75,-3.875,-3.5,-1.0,0
-3.875,2.875,-3.25,-2.0,-0.625,-3.0,7.125,1.875,0
5.75,-1.0,-0.875,-1.75,3.5,6.5,0.125,-0.375,1
-1.0,7.0,1.25,-0.125,-1.375,0.75,-0.5,0.125,2
5.0,6.5,-0.875,-1.75,-4.25,-4.625,-1.75,0.5,2
-2.25,-0.875,-0.25,0.875,1.875,-0.5,-1.25,-1.375,0
-3.375,0.875,-1.0,-0.375,-1.0,-2.25,-1.125,-1.125,1
-3.25,-0.75,-0.625,-0.625,-1.5,-1.75,-0.75,0.625,1
-3.375,-0.875,-1.75,-1.0,0.5,-3.25,0.125,-1.25,2
-1.125,-1.25,-0.5,-0.5,-1.875,-12.375,-0.125,-1.875,3
-0.5,-0.625,-0.5,-0.75,-2.625,-1.125,-0.75,-0.375,1
-2.25,-8.0,-2.375,1.0,-4.375,0.125,-8.5,-3.125,0
8.0,1.5,0.875,0.5,-2.125,-4.75,-48.0,-9.375,0
1.375,0.625,0.375,1.375,2.125,13.75,2.875,1.125,3
-3.75,-0.625,0.0,0.0,-4.375,-5.375,-0.625,-2.0,1
-0.875,-1.5,-1.5,-1.375,0.625,-5.375,-1.875,-1.75,3
2.5,-3.75,-1.875,-1.875,-2.625,-3.0,0.0,1.0,0
0.5,-0.25,0.25,0.625,-3.75,-7.5,-0.875,-0.875,3
-2.375,-1.875,-1.625,-1.75,1.0,2.875,-0.125,-1.625,3
-1.5,-1.375,-0.625,-0.75,-0.375,-5.5,-0.5,-3.625,3
0.375,-0.875,-1.625,-0.75,-0.375,-1.5,-5.625,-4.75,0
2.0,-0.25,-1.25,-1.125,-0.25,-2.5,-1.375,3.0,3
-4.875,-0.5,-0.75,-0.875,-1.625,4.25,0.0,2.375,3
0.375,-0.875,-1.25,-2.0,-1.875,-5.25,-2.375,0.75,3
4.375,0.5,0.375,0.25,1.0,5.0,-0.875,0.125,3
-1.125,-0.875,-0.625,-0.75,1.375,-5.25,-0.75,1.625,3
-1.75,-1.5,-1.125,-1.0,-2.375,-0.5,-1.75,-3.25,1
-1.125,0.0,-0.875,-2.625,1.875,-9.75,-5.5,1.375,3
-2.25,-9.125,-1.75,-4.375,3.0,-0.625,-4.75,-0.625,0
-2.125,-0.25,-0.125,-0.125,3.875,-1.75,4.375,-1.25,2
2.0,0.125,-2.5,-2.75,-1.125,4.75,0.125,0.75,2
0.625,0.125,-0.5,-0.375,-0.25,-1.625,3.375,2.625,3
-1.0,-1.75,-2.125,0.375,2.75,-9.375,-4.75,2.75,3
-1.625,-1.5,-1.0,-0.375,-0.375,0.125,1.875,-2.125,0
10.75,0.0,-0.25,-0.375,0.875,-3.625,-4.25,-3.875,0
2.0,-0.875,-0.125,0.25,0.25,2.875,0.0,0.5,3
5.0,1.0,0.0,0.75,6.875,3.625,-0.5,0.75,1
-6.25,-1.625,0.125,-1.125,1.5,2.5,-26.375,-12.5,0
-10.5,-5.125,-3.375,-0.75,4.5,-6.125,-1.875,-3.125,2
-0.625,0.375,-1.375,-1.375,1.375,-2.0,-1.875,-2.125,1
2.625,1.5,0.625,-1.5,-1.5,5.0,0.125,-4.75,2
1.0,-1.5,-0.375,-0.5,1.375,3.25,-0.625,-0.875,3
-2.25,-7.875,0.625,-0.625,-2.625,3.375,3.0,-2.375,0
0.875,0.0,-0.125,-0.125,1.5,1.0,-0.625,-0.125,2
-8.75,-0.125,0.625,0.375,-5.75,1.375,-1.625,0.75,2
-2.25,-1.375,-0.625,-1.125,-7.375,-2.375,0.0,-1.25,1
1.25,-0.75,-0.25,-0.625,-3.0,-1.625,-0.875,-0.25,1
-1.5,-1.5,-1.25,0.125,4.25,7.875,-1.625,-2.625,3
0.25,-0.875,0.25,-1.125,-9.0,-11.25,-0.5,0.25,3
-5.25,-3.875,-3.25,-3.875,-3.75,-1.0,-6.375,-0.25,0
2.375,-3.25,-1.75,-5.375,-2.0,-8.25,-8.25,-4.25,0
-1.75,-1.5,-0.625,0.5,-3.75,-3.125,-12.5,-5.875,0
-1.0,-1.5,-0.25,0.375,-1.25,-0.75,-0.875,-2.375,1
1.0,-1.125,0.0,-0.125,-2.5,-6.25,-1.75,0.375,3
-4.25,-1.5,-2.0,0.5,5.625,7.625,0.0,-6.125,2
2.25,6.25,0.75,1.625,0.875,-4.5,-3.125,2.125,0
-1.0,-1.125,-1.375,-0.875,-0.125,-0.25,0.375,-0.625,0
0.125,-1.25,2.625,0.25,0.375,3.875,-0.125,-0.25,2
-1.0,0.5,0.125,0.25,1.125,-3.125,-1.75,-0.625,3
-2.125,0.0,-0.375,0.5,-0.625,0.5,-1.625,-4.375,3
-5.875,-8.625,-4.5,-1.5,0.0,0.0,-0.25,-2.5,2
-2.375,-0.5,-0.875,0.625,-0.375,10.875,0.375,-0.25,3
-2.875,-0.875,-1.125,-1.625,-1.75,-2.25,-4.875,1.625,0
4.25,-2.25,0.0,-3.625,0.0,4.5,-0.375,-3.375,2
-5.375,-0.875,-0.5,-1.0,1.5,-4.125,-0.375,-3.0,3
-4.75,-0.5,-0.625,0.5,0.25,-0.875,-0.75,-3.875,1
8.625,-1.0,-0.5,-1.75,-0.75,-0.25,1.875,0.625,0
2.875,0.375,0.625,0.75,4.5,9.625,1.25,2.375,3
0.75,-1.0,-1.625,-1.0,-2.0,-0.125,-0.75,0.875,1
1.0,0.75,-0.125,-0.75,-7.0,-4.25,-1.125,0.5,1
-0.625,-3.25,-1.125,-0.5,-4.0,0.5,-0.25,0.75,2
-1.875,-0.625,-0.75,-1.625,-2.25,-4.5,-0.25,1.375,1
-4.0,5.375,-1.125,-3.375,-3.625,-4.125,-17.5,-6.875,0
-0.75,-0.875,0.25,-0.125,0.75,-0.125,1.125,-1.625,0
0.75,-0.375,-0.125,0.75,-2.0,-6.5,-0.375,3.625,1
-0.5,-0.75,-0.75,-0.5,-3.125,-4.25,-4.375,-8.125,0
0.0,-1.125,-0.75,-1.625,-0.625,0.875,-1.0,-1.125,1
5.0,-0.625,-0.375,-1.0,0.625,-3.0,1.625,-1.625,3
-4.125,0.25,0.0,0.125,-0.875,2.5,-0.625,-1.625,3
-1.5,-2.25,-2.625,-2.25,2.875,6.125,-2.25,-2.375,3
-2.125,-1.0,-0.625,-0.125,-4.0,-3.25,-0.625,-1.0,1
-6.5,-1.5,-1.125,-2.625,2.25,1.625,-1.875,-1.625,3
-2.75,-4.125,-1.125,-0.625,-0.75,-1.5,-4.0,-1.125,2
-0.5,-1.125,-0.25,1.0,1.125,-0.75,-0.25,1.5,0
-2.625,-2.375,-1.875,-0.875,7.0,4.625,-1.625,-1.875,1
-1.75,0.0,-1.5,-0.625,6.75,6.75,-1.25,-1.125,1
-1.875,0.25,0.125,1.125,-1.625,-1.5,-0.25,-0.75,1
4.0,2.75,2.0,1.625,1.875,4.625,4.0,5.125,3
-1.5,0.875,-0.125,1.25,4.25,-3.625,-1.25,-5.75,2
-3.25,-0.25,0.375,0.625,3.125,2.25,0.25,-0.875,3
-0.25,-2.0,-0.875,-2.25,-1.875,-3.375,0.375,4.625,2
-2.0,-0.375,-1.5,-1.5,10.75,1.5,-1.75,-5.125,2
-4.375,-2.125,-1.5,-2.125,-6.75,-4.875,-0.875,-0.625,1
-1.625,-0.75,-0.875,-0.75,0.5,-3.625,-2.75,-2.625,0
-0.625,-0.625,-0.625,-1.375,-3.125,6.75,0.875,-3.125,3
-7.5,-2.25,1.125,-0.5,4.125,0.875,-10.375,-2.5,0
-4.5,-2.125,-1.25,-0.75,7.5,6.75,-0.5,-4.25,1
-1.125,-1.5,-1.125,-1.5,-4.0,-14.0,-2.875,-1.875,3
-2.125,-1.125,-1.125,2.625,1.625,-2.75,-4.125,-3.25,0
2.625,-1.0,-0.625,1.0,2.0,0.0,2.0,0.0,0
6.125,-0.75,-1.0,-0.875,-1.125,0.875,3.0,3.25,0
1.5,-0.5,-1.125,-0.375,-2.625,-0.25,-0.875,1.0,3
-0.125,-0.875,-0.25,-0.375,-1.75,-2.0,-2.0,0.5,1
-1.75,-1.25,-0.625,0.0,-1.375,-8.25,-0.25,-0.125,1
-1.25,-2.375,3.0,4.375,3.5,7.125,-30.5,9.375,0
2.125,-3.375,0.25,0.75,-1.375,-4.625,1.125,1.625,0
-1.75,-0.125,0.375,1.375,-1.0,-6.875,-36.625,8.875,0
0.375,1.0,1.75,0.5,-1.5,6.0,9.25,-4.375,0
0.5,-1.125,1.0,2.75,6.25,14.75,4.0,-1.25,3
2.625,4.25,0.5,-1.875,1.125,-6.5,-1.5,-4.125,2
-5.125,-0.5,0.5,-2.625,0.375,4.125,-33.5,2.5,0
1.0,0.125,-0.75,0.625,2.875,7.875,0.375,5.125,3
-8.0,-0.75,-2.625,-3.125,-0.625,-5.25,-17.875,-2.625,0
-1.375,-0.5,-0.875,-0.375,-0.375,0.375,-2.625,-0.875,0
-0.625,-1.375,-1.25,-1.125,-2.125,-3.25,-0.875,-2.875,2
-0.5,-0.125,-1.125,-1.5,7.75,8.5,-0.5,0.375,1
1.625,2.0,0.0,0.0,2.875,10.125,3.0,-0.5,2
8.5,0.5,-0.25,-0.375,1.125,1.25,3.75,-2.25,0
2.125,-1.375,-1.375,-2.75,0.625,-2.0,-7.625,0.625,0
0.625,5.25,1.0,-0.5,-2.5,-9.5,-5.25,-2.5,2
-0.375,-1.25,-0.375,0.0,6.0,10.5,-0.125,2.5,3
-3.0,-0.375,-0.625,-1.375,6.375,3.625,-6.375,1.375,0
-0.75,1.125,-2.625,-1.25,0.375,9.0,-0.25,0.75,2
-7.125,0.5,-0.25,-0.125,-1.75,3.5,-3.75,-1.25,2
0.125,-0.5,-0.375,-0.625,0.5,-1.625,1.0,1.75,3
0.375,-1.375,-0.5,0.875,2.75,2.25,-28.0,5.625,0
-2.75,5.0,-0.25,-1.5,2.625,-0.875,-0.125,-2.375,2
1.0,-0.25,-1.25,-0.625,-1.875,-8.875,-0.625,0.25,3
-0.375,-0.875,-1.25,-1.0,2.375,4.625,-0.75,-1.5,1
-1.75,-11.875,-3.25,-2.125,-2.375,-0.75,-0.625,-9.125,2
-2.375,-1.5,-1.25,-1.25,0.375,-3.25,-2.25,-2.375,0
0.125,-0.375,-0.5,1.875,4.25,-0.875,1.625,0.875,0
-0.75,-1.25,-1.125,-1.625,-2.5,-0.5,-1.0,1.375,3
-0.25,-0.5,-0.5,0.875,0.25,-1.125,-4.0,-0.5,0
1.75,1.625,0.375,-0.25,0.625,-6.25,0.25,-0.75,2
0.625,-0.625,-1.875,-0.75,-1.375,-1.125,-1.75,1.5,3
-4.125,0.25,-0.625,-1.5,-0.875,0.0,-0.375,-2.125,2
2.25,0.25,-0.75,0.75,2.5,-0.625,-0.5,-2.25,1
0.875,-1.0,0.125,-1.75,2.125,2.625,-18.25,6.625,0
-1.5,-0.625,-0.5,-0.25,-0.25,0.5,1.625,0.0,3
-7.0,-0.625,1.375,4.375,0.5,0.125,2.125,-11.375,3
-1.875,-1.375,0.125,0.25,4.0,1.5,0.0,-1.125,1
0.75,-0.875,-1.375,-0.875,0.625,1.625,-9.25,-2.625,0
-5.125,-5.125,-1.75,-1.875,-0.25,-0.625,-1.875,-3.5,2
0.75,-2.375,-2.625,-4.0,6.25,15.0,-1.125,-3.375,3
-2.5,-1.375,-1.625,-3.875,0.75,7.375,-4.625,-4.75,3
4.0,-0.875,-0.625,-0.125,-1.0,2.0,-10.375,-4.125,0
0.75,-2.25,-1.5,-0.875,1.625,-1.5,0.125,1.25,2
-1.125,-0.625,0.625,0.75,5.25,9.375,0.375,-0.75,3
-1.875,-0.125,-0.375,-0.625,6.0,5.125,1.0,1.0,3
3.375,-0.5,-0.875,-3.25,-1.625,-12.875,-3.0,-4.0,3
-1.75,-2.0,-0.375,-1.75,-5.125,-5.0,-2.875,2.75,3
-1.5,0.25,-1.375,-0.375,-1.25,-1.5,8.875,5.0,0
2.75,-0.125,0.125,0.125,3.0,1.75,6.25,3.75,0
2.75,-0.875,-0.375,-0.5,-1.0,-2.75,-0.75,-2.0,1
-0.5,0.75,-0.375,0.875,-1.5,-5.125,0.375,0.5,2
-1.75,-1.0,-1.875,-1.75,-0.75,-0.75,5.75,1.0,0
-4.875,-9.625,0.25,-1.75,0.5,4.375,-1.125,2.875,2
2.0,-1.375,-1.0,-0.75,3.5,1.125,-0.5,-0.75,1
-4.5,-2.125,-1.375,-1.375,1.375,1.25,-0.375,-2.5,1
-0.625,-0.125,0.25,1.125,1.875,9.5,0.875,4.875,3
4.25,-0.375,-1.875,-4.75,-0.125,-1.625,-1.125,-0.125,0
3.75,3.25,-0.25,0.5,-2.0,-4.375,-1.0,1.625,1
0.625,1.0,0.25,-1.25,-0.375,-3.875,-2.125,-1.375,2
1.875,0.375,-0.375,0.25,1.0,2.375,17.625,4.75,0
2.0,-1.0,-1.5,-0.625,0.75,-1.125,-1.375,-4.25,2
-0.875,44.5,-0.25,-0.25,-3.0,4.375,-0.125,-10.25,2
-4.125,-0.25,-0.25,-1.25,-5.375,0.5,-16.375,-1.5,0
-2.375,-3.25,-3.125,-1.75,-3.375,-15.75,-3.375,1.875,2
-0.25,-0.875,-0.625,-0.875,3.0,2.125,-1.75,-1.375,3
1.5,-0.25,0.25,0.875,-1.125,-4.375,-1.5,-1.0,1
1.375,-1.125,-0.25,-0.875,0.625,-0.375,-1.125,-2.0,1
-2.75,-1.375,-1.75,-2.125,-2.0,12.125,-1.25,-0.75,3
-0.125,0.75,-0.375,0.0,-0.125,-1.25,0.875,1.375,2
-1.625,-1.875,-0.5,0.0,5.0,-0.5,0.375,-1.75,1
1.0,1.75,-0.5,-1.0,-0.5,-0.5,-0.25,-2.25,0
3.5,0.0,-1.0,-1.125,-0.125,2.125,-1.125,0.375,1
-1.625,-1.125,-0.375,-0.125,-3.625,-4.875,0.125,-2.25,1
0.75,-0.75,-0.375,-0.5,-1.25,-0.625,-1.25,-5.125,3
-1.625,-4.375,-0.375,-1.375,-0.125,0.25,-6.75,-5.25,3
-4.0,-3.125,-1.75,-3.0,-3.5,-3.125,-1.875,0.375,3
2.5,-10.5,-2.0,-1.875,3.125,4.5,-1.25,-0.75,1
-0.5,-4.0,-3.75,-0.625,-1.25,4.0,0.875,0.375,2
-3.5,-0.25,1.75,1.125,-0.375,7.75,0.625,-1.125,2
-1.875,4.75,2.75,-0.5,-2.375,-0.25,-0.625,0.5,2
-1.25,-1.0,-3.5,-1.0,-1.5,-4.375,-5.0,-0.5,0
-2.75,-1.0,-0.875,-1.5,-2.75,-0.875,-1.25,-3.0,1
-0.625,-0.625,-0.375,-1.0,-2.75,-2.875,-0.125,0.375,1
-3.625,-1.25,-2.375,-3.75,-5.125,0.125,-1.0,-0.5,1
0.75,-0.75,-1.25,0.25,3.25,7.375,-0.25,-1.5,3
-2.5,-1.0,-1.0,-1.625,3.25,2.875,-0.625,-1.125,1
0.125,-0.625,-0.375,-0.75,4.5,-0.25,0.625,0.5,1
1.0,-0.375,-0.625,-0.875,4.875,2.25,-1.25,-0.375,1
-3.625,-2.125,-0.25,-0.375,1.25,0.5,-0.5,-3.125,1
3.75,-0.125,-1.125,-1.375,-5.5,-1.875,-0.625,-0.5,1
-0.75,-1.875,-1.75,-0.75,2.375,0.875,-5.5,-3.375,0
-5.25,-1.375,0.375,4.75,0.75,-5.0,-10.0,2.0,0
-0.125,-1.25,-0.375,-0.875,-6.375,-1.0,-0.125,-0.75,1
-2.0,0.25,-0.125,-1.0,-0.625,-4.25,-0.125,-1.75,3
-2.0,-6.5,-4.25,-6.75,-0.25,-4.875,-7.25,4.875,3
-0.125,-0.75,0.625,-1.0,-1.625,-1.25,2.25,0.625,2
-2.375,-2.0,-1.625,-1.375,2.375,2.0,-0.625,-2.625,1
-1.625,-0.5,-0.75,-0.5,2.0,0.875,0.25,2.5,1
0.75,-3.125,-5.125,-3.625,-2.25,-1.0,9.125,-3.0,0
2.625,0.0,-0.125,-2.625,1.75,-3.75,-31.25,-4.25,0
-1.0,-0.25,0.0,0.125,-1.25,-3.375,-0.25,-2.875,1
-3.625,-1.625,-1.125,-1.375,2.25,1.75,-0.625,0.0,1
9.5,-0.5,-0.625,-1.5,0.5,-2.5,-0.5,-0.125,1
3.875,-1.125,-0.875,0.5,0.25,-2.125,-10.0,-5.375,0
-1.625,0.5,-0.625,-1.0,-0.25,1.125,0.0,0.125,1
-5.625,-1.5,-1.125,-0.625,2.25,3.75,-0.125,-1.75,1
-0.625,-0.625,-0.75,-0.25,0.75,6.625,0.0,-1.375,2
0.875,-0.625,-0.625,-0.25,-1.0,-0.125,-1.5,-2.125,3
3.375,-3.5,-0.875,-1.0,-4.875,-0.875,-2.75,-3.875,2
-1.625,-1.125,-1.625,-0.625,-3.875,-4.25,-2.375,-2.125,2
2.5,-7.25,-1.875,-0.875,-2.5,-3.625,-0.875,1.875,2
1.375,-0.625,-0.75,-1.625,0.875,3.375,-1.25,-3.375,3
0.375,0.125,-1.25,-1.0,-2.625,-10.0,-0.75,1.25,3
1.625,0.75,-0.375,3.125,7.25,5.5,12.875,5.125,0
-0.25,-0.875,-1.0,-1.125,1.875,5.125,1.125,-3.125,3
-2.125,-2.0,-1.375,-0.375,9.25,9.125,0.0,-1.125,1
-0.875,-3.0,0.0,0.25,1.75,0.25,-0.125,6.375,2
1.75,-0.75,-1.75,-0.125,-0.125,0.875,0.125,-2.5,0
16.125,3.625,2.0,-0.5,1.125,-4.5,-2.125,0.625,0
-5.375,-2.25,-0.125,-0.75,0.5,-1.125,0.75,-2.625,3
-2.0,0.0,-0.125,0.125,-7.375,-7.25,-0.875,-2.125,3
0.5,-1.625,-0.25,-0.5,0.875,6.0,-0.125,-0.75,0
-0.5,-0.875,-0.125,-0.25,-2.0,-0.25,-1.625,-3.0,0
-1.125,-0.25,-0.75,-0.75,-2.125,2.0,0.25,-2.5,3
8.375,-0.25,-1.0,-0.75,6.875,3.375,-0.375,-6.5,1
-0.5,6.0,-1.5,-0.625,0.875,-0.75,0.125,-2.25,2
-2.0,-1.5,-0.875,-0.625,0.125,0.875,-0.5,-0.375,1
2.375,1.0,-1.375,-0.875,-6.375,-4.375,-0.625,1.0,1
-3.625,-0.75,-1.625,-4.125,1.875,11.625,9.625,-3.0,0
2.25,-0.125,-0.25,-2.0,-0.25,-0.125,1.625,2.75,3
-3.125,0.875,-1.875,-2.625,-1.5,-3.5,-0.5,-4.75,0
-0.25,-0.625,-1.125,-1.875,0.625,-2.875,-1.0,0.0,3
0.75,1.875,-2.0,-2.125,-1.5,-6.875,-1.875,-0.75,2
0.875,-1.625,-1.125,1.125,-2.0,-9.0,-3.75,2.0,0
1.375,-0.5,-1.375,-2.25,-4.625,-3.625,-1.25,-0.875,1
1.0,1.125,-1.625,-2.5,5.875,-4.125,-2.75,-4.125,3
4.125,2.5,-1.75,-1.375,-3.125,-1.875,-0.5,1.0,2
-0.125,-0.125,-0.5,-0.375,0.25,2.375,-0.375,1.375,3
3.625,-13.875,-3.125,-1.0,3.5,8.875,-0.625,1.375,2
1.625,-0.5,-0.875,-0.625,0.125,4.875,0.5,-3.375,3
0.75,-0.75,-0.625,-0.25,5.5,3.875,-0.375,-2.5,1
-4.125,-0.75,-0.5,1.125,2.125,-0.625,0.25,2.125,0
0.125,-1.125,-0.25,-0.25,-1.75,1.875,0.0,-3.375,1
-1.625,0.125,-0.875,0.0,-2.375,-5.875,-1.25,-2.625,2
-0.375,-0.75,-1.5,-1.125,-0.5,-4.0,-2.625,3.25,3
0.875,-0.5,-0.5,-0.875,-1.375,0.875,-1.125,-1.5,1
-2.75,0.5,0.0,-0.375,-2.0,-5.0,-0.625,-4.5,3
-1.375,-3.875,-0.5,1.125,1.625,3.5,-0.125,-4.5,2
1.5,6.875,-0.5,-1.125,-7.375,-8.25,-0.375,-3.0,2
4.625,0.875,-1.875,-2.25,-3.5,-3.0,-0.375,-0.375,2
0.25,1.25,-0.875,0.75,1.375,1.375,-3.5,-2.125,0
4.0,0.75,-0.125,-1.25,3.0,2.0,-1.0,-0.875,1
-1.875,-0.5,-0.25,1.875,3.875,0.5,10.25,2.0,0
2.875,-0.25,-1.625,-1.0,4.25,7.125,-0.75,4.5,1
-2.75,-0.625,-1.5,-0.375,1.25,6.375,-0.625,-3.25,3
1.0,4.125,-1.75,-1.0,-5.25,-3.25,-0.375,5.125,2
-5.25,-1.5,-0.875,-0.375,0.125,-1.125,-0.375,0.375,1
-0.25,-4.5,-2.875,-2.125,1.5,-3.0,-0.875,-1.0,2
-2.125,-1.0,0.0,-2.25,-0.125,2.25,-0.625,-5.375,1
6.0,-6.625,-3.875,-0.625,-1.5,-0.75,-1.125,-2.875,2
-3.25,-1.0,0.125,-0.375,-2.375,4.125,0.375,2.25,2
12.375,-0.125,-0.375,-1.75,-3.75,-2.5,-0.625,3.0,1
-2.125,-0.75,-2.125,-3.5,-2.125,3.125,-1.25,-1.0,1
-1.0,0.5,-1.125,0.75,0.5,-0.75,-1.5,-1.625,0
3.875,0.125,-1.125,-0.25,1.0,0.25,-0.75,-1.375,1
-4.25,-1.25,-0.875,-0.75,-2.125,-9.875,0.0,0.5,3
-1.25,-1.125,-1.5,-1.75,5.375,5.375,0.375,0.0,1
-2.375,-1.5,-0.5,-0.625,0.875,1.125,-0.75,-0.5,1
-4.0,-0.75,-0.875,0.125,-0.5,-1.75,-9.125,5.75,0
-0.875,-1.375,-2.0,-2.25,0.5,-2.125,-2.75,9.375,3
-5.375,3.5,-1.5,-2.125,3.125,9.625,1.375,-2.5,2
3.125,-1.375,-1.5,-1.625,-2.0,0.25,-5.75,-4.0,0
-2.25,-0.875,-0.75,-1.125,-1.0,-3.125,-14.375,-5.875,0
-0.625,-5.75,-1.75,-1.75,-2.0,-0.875,-0.375,5.25,2
-0.5,2.625,-0.625,-0.75,-2.125,3.375,-0.5,1.875,2
-5.375,-0.25,-1.5,-1.5,4.75,0.25,-0.875,0.5,1
2.75,3.0,-1.25,-2.5,5.375,6.5,3.375,3.0,0
0.875,0.5,-1.25,-1.375,-2.0,-1.25,-2.875,1.375,2
-4.375,-1.75,-0.125,-0.125,-2.0,-4.125,-0.25,-1.125,1
-1.75,-1.875,-1.25,-1.5,-6.625,-10.375,-2.25,-4.625,3
-0.875,-2.0,-1.75,-1.75,2.375,6.125,-1.125,-2.5,1
-0.875,-0.5,0.125,0.0,0.25,-2.125,-1.0,-0.875,3
-4.5,0.625,-1.5,-2.75,0.5,1.0,-0.375,1.125,2
-3.125,-1.125,-0.375,0.0,0.0,1.0,0.0,-1.125,1
4.25,-0.375,-0.875,-0.375,3.25,0.125,-0.625,0.875,1
2.625,0.25,-0.25,-0.75,4.25,7.25,3.125,1.375,3
1.0,0.5,0.125,-0.375,-0.125,-3.0,-1.125,1.25,1
-1.75,-3.0,1.0,1.5,1.125,-0.5,-2.125,-0.875,0
-5.625,-4.375,-3.0,0.0,-1.625,0.25,-1.375,-5.125,2
-2.0,-0.125,0.25,0.5,1.625,1.75,0.5,0.0,1
-5.125,-1.125,-0.75,0.25,1.75,3.0,0.125,-0.875,1
-1.625,-2.375,-1.5,-2.875,-2.5,-0.25,-1.125,1.25,3
-1.5,-1.0,-1.125,-0.5,-1.125,-1.375,-0.625,-2.875,1
-3.375,0.0,-1.625,-1.125,-1.125,6.75,1.5,-2.75,0
-1.625,-0.25,-0.125,0.5,1.875,0.375,-0.375,0.625,3
-5.25,-8.375,-3.625,-0.375,3.125,6.0,1.25,2.375,2
-2.875,-1.0,-0.75,-0.5,3.0,0.125,0.375,3.25,2
4.375,-0.375,-1.125,-1.0,4.375,3.5,-0.5,0.625,1
-1.0,-1.625,-1.25,-0.625,-1.0,3.0,-1.0,-2.875,2
0.375,-1.0,-1.5,-1.375,4.625,8.0,-0.25,-0.375,1
-1.0,-1.0,-1.375,-4.5,0.875,0.75,-19.125,-0.875,0
-0.25,0.0,0.875,0.625,-0.125,0.625,1.125,-1.25,0
-4.125,-1.5,-0.625,-1.25,5.0,-0.875,-1.375,-1.375,2
0.875,-0.625,-1.375,-0.875,-2.125,1.0,-0.5,-0.25,1
3.375,-2.875,-4.375,-3.0,0.125,0.125,-4.125,-1.875,2
-6.125,-1.0,-0.625,-0.375,2.375,-0.875,-12.75,-6.625,0
1.875,1.625,-2.5,-0.875,-3.625,-0.625,-1.375,1.375,2
1.125,-0.375,-0.5,-1.75,0.375,-2.0,-3.625,0.75,0
-2.5,2.625,-1.375,0.5,4.75,10.0,2.625,-0.625,2
0.125,0.375,-0.125,-1.625,1.375,0.5,-1.75,-2.375,0
1.875,-0.25,-0.25,-0.25,-0.375,-0.25,-0.25,0.625,1
-0.375,-0.5,-1.75,-0.875,-2.25,7.75,-0.875,-4.875,1
1.125,-0.625,-0.5,-1.25,9.5,5.75,-0.75,-1.125,1
-4.5,-1.875,-0.625,0.375,7.375,6.0,-0.375,-2.0,1
-1.125,-1.375,-1.5,-0.875,-1.75,-6.5,-2.625,0.375,2
-2.625,-1.875,0.0,2.375,-2.625,-7.625,-3.25,-3.0,3
-3.5,-3.75,-4.375,-2.75,-3.875,-6.875,-21.25,-13.875,0
2.75,-1.125,1.25,0.375,-4.0,2.125,4.125,1.5,0
-1.875,-0.5,-0.75,-0.375,1.375,-2.125,-1.375,-3.375,3
-1.625,-0.375,-1.125,-1.875,-0.875,1.375,0.5,-0.625,0
-6.0,-1.875,-1.5,-2.375,2.5,3.375,-2.375,-5.125,1
-5.25,-1.875,0.0,0.25,-3.0,-16.5,-5.125,-6.125,3
1.625,-0.5,1.25,0.875,-0.75,-2.875,1.125,1.25,3
-7.875,-1.25,0.0,-0.375,-9.0,-2.125,-1.5,-3.75,1
1.125,-0.125,-1.25,-2.5,-1.125,-2.875,-0.875,-3.5,2
2.875,0.0,-0.25,0.25,-0.25,-0.25,-3.5,6.125,0
-0.25,0.375,1.25,0.0,1.5,5.375,4.125,-1.25,0
6.25,0.375,-0.25,-0.25,-6.25,-4.75,-0.625,0.0,3
-4.0,-0.25,-1.0,-1.125,-6.625,-0.25,-0.875,-2.25,1
0.25,-0.375,-0.375,0.625,-7.375,-4.75,-0.875,-2.625,1
-4.875,-6.875,-2.375,-1.625,-0.25,4.375,-3.125,-1.5,0
-2.375,-0.625,-0.375,-0.125,3.375,4.5,9.0,-2.5,0
-4.0,1.875,0.25,2.5,2.375,0.625,0.5,0.0,2
-5.5,-3.0,-2.375,-1.25,-2.125,-4.25,-12.5,-4.0,0
-0.125,-3.5,-2.75,-2.75,6.375,4.625,-5.5,-5.0,3
-3.125,-1.5,-0.375,-0.25,-3.75,-9.5,1.5,2.625,3
-1.0,-1.75,-2.0,-3.0,2.875,0.875,-4.75,-2.625,3
-1.5,-4.5,-2.0,-2.375,3.25,-2.375,-1.375,-3.125,2
-0.875,3.0,-0.5,-1.375,-9.25,-5.125,-0.125,4.25,2
7.5,-1.125,0.25,0.375,5.625,3.75,-0.5,-1.75,2
-0.375,1.125,0.0,-1.0,2.625,9.5,-11.5,-1.875,0
1.125,-1.0,-0.75,-0.25,-6.0,1.875,-1.125,-0.875,1
-2.0,-0.5,-1.125,-1.125,2.375,-4.375,1.0,-0.75,0
-0.625,-0.75,-0.5,-1.25,1.0,-5.25,-0.375,-2.875,3
-2.625,-1.25,-1.25,-0.875,-0.375,9.0,1.5,-2.5,3
-1.0,-1.0,-1.5,-1.5,-0.25,4.125,-0.25,-0.125,1
-2.25,-2.0,-1.125,-1.375,-0.75,-0.125,-5.625,-2.375,0
1.75,3.125,1.0,-0.5,2.75,4.0,-27.875,-2.0,0
1.0,-1.375,-1.375,-1.375,4.125,1.5,-2.125,-1.875,3
2.5,-0.75,-0.5,0.0,-1.875,-2.75,-0.875,0.25,1
-0.625,-0.75,-0.875,-1.25,-4.5,-11.375,-2.375,-3.5,3
0.875,-0.625,-0.375,-0.625,0.375,0.375,-3.375,-5.25,0
-1.5,-1.375,-1.875,-2.5,-0.125,-1.5,-1.875,-1.875,0
-3.25,-1.0,-1.25,-0.875,-2.5,-2.0,-1.625,-5.125,2
2.25,-0.75,-0.75,-1.125,-2.375,-3.5,-1.5,-0.625,1
0.0,-0.75,-0.5,-0.75,1.125,3.75,-1.0,3.875,3
2.625,-0.25,-0.25,-0.125,3.625,9.375,1.5,0.25,3
-10.0,-0.375,-0.375,2.75,-2.375,-5.375,-32.875,4.375,0
-3.875,-2.25,-1.0,-1.625,2.0,-0.875,-2.375,2.75,0
0.0,-1.375,-0.875,-1.5,2.0,6.5,0.125,-0.125,1
-3.0,-4.25,-1.625,-4.25,-6.125,-8.25,-2.75,-8.125,2
-3.625,-1.75,1.125,1.875,2.25,-3.0,-1.125,1.125,2
-5.75,-5.375,-2.75,-1.25,-4.0,-1.75,0.5,-2.625,2
-6.125,0.75,0.25,0.125,3.75,1.875,-1.5,-6.375,2
-4.625,-7.0,-1.125,-0.5,-0.75,-1.0,5.625,8.875,0
-0.125,0.0,-0.875,0.0,-0.375,-1.25,-0.25,-1.375,0
1.25,0.25,-0.875,0.375,-4.25,-5.875,-0.75,-2.5,1
4.5,1.0,0.125,0.125,-7.125,-2.125,0.25,1.625,1
-5.875,-1.125,-1.0,0.625,0.25,-5.875,-29.125,-8.125,0
2.875,-1.25,-0.625,-0.75,0.0,-0.375,-0.625,-1.75,0
-0.25,-0.75,-0.375,-0.125,2.5,8.25,1.375,1.5,3
2.0,-2.5,-1.5,-1.375,-1.875,-11.625,-2.25,2.5,2
1.125,-0.625,-0.5,-0.375,-5.5,-6.125,-1.0,-0.25,3
-5.5,-0.875,-0.25,-0.375,5.5,3.625,-0.5,-1.5,1
-1.5,-0.625,-0.5,-0.875,-1.75,-1.125,1.125,-0.875,3
-16.25,-6.25,-2.875,-2.25,-2.5,-13.75,-48.0,-21.125,0
4.75,10.125,0.375,-0.375,-2.25,-2.875,0.125,-0.5,2
1.25,-0.625,-0.375,-1.0,-3.25,-2.75,-35.25,0.0,0
0.625,-0.375,-1.125,0.0,3.875,1.25,-1.25,-1.0,1
3.375,1.5,-0.125,1.625,-0.625,0.875,-1.875,-1.375,3
-2.875,-1.0,0.25,-0.75,-2.5,-4.625,0.0,0.875,1
-2.0,-2.375,0.25,2.375,3.75,-2.875,-4.75,-0.375,3
-2.0,-0.75,-1.5,-0.875,3.25,1.625,-1.5,-3.0,1
-4.625,-1.0,-1.25,-0.5,-0.875,1.375,0.5,-0.5,1
2.75,-4.25,-2.0,-0.25,0.25,-6.125,-3.25,-0.875,2
-2.25,-13.625,-1.875,-0.25,-1.125,5.75,-0.5,-1.125,2
-1.125,0.125,-0.5,0.25,-0.25,-0.125,-2.5,-2.125,0
-3.75,-5.125,-1.875,-2.625,2.375,-5.125,-8.75,-4.875,0
-2.625,0.125,-1.625,-2.0,-1.0,-1.125,-6.125,-1.625,0
-2.375,1.0,-1.25,-1.375,-3.375,1.625,0.75,-2.375,2
-4.125,-3.75,-2.375,-0.375,-7.625,-2.875,-2.75,-5.125,2
5.625,0.125,-0.5,-0.75,-11.125,-5.75,-0.75,1.0,1
-4.375,-1.0,-1.625,-1.25,-1.625,1.0,-0.125,-0.25,1
-3.875,-43.625,-2.75,-1.625,1.0,6.125,-0.625,0.5,2
2.125,4.25,-0.375,-0.875,-5.0,-5.5,-0.125,1.25,2
-1.25,-1.375,-0.375,0.375,0.375,0.5,0.0,-0.25,1
-2.625,-3.25,-3.0,-2.125,-0.625,0.375,1.75,-4.5,0
-1.875,-0.25,-2.0,-2.125,3.125,12.625,-1.5,-2.25,3
-8.875,0.75,-0.625,-0.875,1.75,3.125,-1.375,-2.75,0
3.5,1.0,-1.125,-2.25,-3.25,-4.75,1.5,1.375,2
-1.375,-1.375,-0.625,-0.25,1.0,-1.125,-0.5,-0.625,3
0.125,-8.375,-2.25,-1.0,3.125,-1.0,-2.625,-2.25,2
-0.75,-1.5,-1.5,0.125,2.125,3.625,1.125,-0.75,2
1.5,-1.625,0.125,-0.75,3.5,0.125,1.625,-4.25,0
-1.625,-1.25,-1.625,-1.0,0.0,-0.375,-0.125,-1.5,1
-6.25,2.125,2.25,0.25,1.875,-1.25,2.75,2.625,2
1.25,0.5,-0.625,-0.875,0.875,3.25,-0.75,0.75,0
-1.5,-0.75,-0.75,-1.375,-6.5,-4.75,-1.5,-2.875,3
-0.875,1.875,0.375,-1.0,2.5,0.625,0.75,1.375,2
-4.875,-1.5,-2.125,-2.375,-1.25,-1.125,0.125,-2.375,0
-3.75,0.25,0.5,1.125,0.75,2.875,2.625,-2.375,0
-1.625,-1.375,-0.125,-0.25,-6.125,-4.0,0.125,0.125,1
1.25,-5.125,-2.625,-2.25,-0.125,3.875,-2.875,-2.25,3
5.875,-6.0,-2.5,0.25,0.125,-3.875,-1.125,-4.625,2
1.25,-0.5,-0.625,-0.75,0.5,0.5,-0.875,-3.125,1
-1.25,-0.625,-1.875,-0.875,-7.75,-9.5,1.0,1.125,2
-1.875,-0.75,-1.375,-1.875,0.125,1.625,-1.75,0.0,0
0.625,-1.625,-0.875,-0.625,-2.0,-3.125,-2.125,-1.125,3
3.5,0.25,-0.625,0.75,1.75,3.5,13.375,6.75,0
-0.75,-0.625,-1.5,-1.5,-2.75,-14.25,-5.0,0.5,3
-2.25,-0.625,-0.5,-1.0,-3.375,-1.625,1.5,1.875,3
1.375,-0.75,-0.75,-1.0,-2.5,-1.25,-1.5,-3.25,3
-3.75,-4.375,0.375,-0.125,-0.25,4.25,-5.25,-1.375,0
-5.125,-1.25,-1.5,-3.0,0.375,6.625,-0.875,-2.375,1
-0.5,-1.375,-1.5,-0.75,-1.25,0.75,3.0,1.75,0
1.125,-1.375,-0.5,-1.375,1.75,14.125,0.25,-3.875,3
-4.0,-0.5,-1.25,-1.375,-2.5,-4.25,-0.5,1.125,3
1.75,-5.0,-0.375,0.0,-3.375,-0.5,-0.125,0.875,2
-4.0,-2.875,-1.625,0.25,2.375,2.125,4.5,-0.5,0
-2.5,0.0,-1.5,-1.375,-0.75,-3.5,-5.625,-0.125,0
-1.0,-1.25,-0.125,-1.0,0.75,-4.25,2.75,0.0,0
0.75,2.0,1.375,1.0,-9.125,-10.375,1.25,0.5,2
1.5,1.875,0.5,-0.875,-3.875,-14.375,-2.125,-1.75,2
-3.625,-0.125,0.75,-0.125,-2.0,-6.0,-0.625,1.0,1
-2.0,-1.125,-0.75,-0.5,0.125,-0.625,-7.25,-4.125,0
2.25,-1.125,-4.25,-6.0,0.25,6.75,2.125,0.125,0
-5.0,-2.375,-1.5,-2.875,-2.25,-6.75,1.625,-1.125,0
4.75,-0.375,-0.875,0.0,-3.0,-1.625,-0.375,2.0,1
-4.0,-1.125,-0.625,-0.875,0.625,-1.75,-3.5,1.5,0
-7.375,-3.75,0.125,5.25,-1.25,2.5,-56.5,-17.875,0
-2.375,-2.5,-0.5,-0.5,2.625,6.625,-0.25,-1.5,2
1.25,-0.25,0.25,0.75,-6.875,-7.5,-1.0,0.625,1
8.875,-0.875,-1.375,0.5,-0.625,-0.5,0.25,2.0,0
-7.0,-1.0,-0.625,-1.125,-1.375,-4.375,-1.625,-4.125,1
-2.25,0.875,-0.5,-0.5,-4.0,-2.5,-1.25,-1.375,1
-1.5,-1.0,-0.375,0.0,0.125,-0.375,-0.375,0.5,1
-1.5,1.375,-0.25,-1.25,-0.75,-0.375,1.625,1.625,0
-0.375,-1.25,0.5,-0.5,1.375,1.125,0.0,-0.625,1
-3.75,-0.875,-0.375,0.0,-1.5,-0.5,-2.375,-1.75,1
0.0,4.375,-1.0,-1.25,5.625,7.375,2.0,-0.875,2
-0.25,-0.625,-0.875,0.5,6.25,5.625,-0.75,-1.0,1
-1.5,-0.875,-0.5,-0.5,-2.5,-3.0,-1.75,-0.625,1
-0.375,-0.375,-0.75,-1.875,-1.625,0.625,0.375,-0.125,0
4.0,2.875,-2.625,-1.5,-1.75,-3.25,-1.5,0.25,2
1.25,-0.75,-1.0,0.75,2.375,2.25,5.0,-3.0,0
-1.25,-1.25,-1.0,-0.625,-4.125,-5.875,-0.625,0.0,1
-10.125,-1.875,-0.5,0.5,0.375,6.0,-3.375,4.75,0
2.625,-1.0,-1.25,-1.5,2.75,3.625,0.125,-0.375,1
0.125,0.375,-2.125,-2.0,0.0,-9.875,-1.125,-5.25,2
-3.125,-0.375,-1.75,-1.375,-1.5,3.375,-0.75,0.375,2
-4.25,8.625,0.5,-1.125,-3.75,-4.375,1.625,3.5,2
1.75,-0.75,-0.75,-2.125,-1.0,-5.0,-1.0,2.75,3
-0.25,-0.875,-0.625,-0.75,-1.875,-9.75,-4.25,-5.25,2
1.875,-1.5,-0.875,-1.375,-5.625,-2.75,-0.625,-2.375,2
0.75,-0.375,-0.625,-0.5,-1.625,-5.75,-1.75,1.625,3
3.125,-0.375,-0.875,-1.125,4.125,-3.25,-1.125,0.25,1
-2.375,-0.625,-0.125,-0.75,-0.25,6.375,-0.125,0.125,3
1.75,0.625,-1.375,-0.25,9.75,12.625,0.75,-0.375,2
-0.875,-1.5,-0.25,1.0,4.25,7.25,1.0,-2.0,3
1.875,0.5,-0.125,-0.125,3.375,-6.625,0.875,1.25,3
9.5,0.5,0.125,-0.875,0.5,2.375,9.75,-0.25,0
-2.25,-0.875,-0.5,-0.5,-2.875,-4.5,0.25,0.625,3
-0.75,-0.625,-0.75,-0.125,-0.25,13.625,1.25,-0.375,3
-0.625,-1.875,0.375,2.375,0.625,1.375,2.625,3.875,3
-3.125,-0.5,-0.5,2.0,-1.75,-4.125,-36.375,-17.25,0
-1.0,-1.625,-0.375,-1.75,3.25,-0.625,-0.125,0.75,0
-7.625,-1.75,-0.75,-0.125,2.625,1.125,-1.375,-0.125,0
4.875,2.75,-1.25,-1.875,3.875,-1.25,-0.625,2.0,2
1.75,-0.25,-1.75,-2.625,-0.625,9.5,-2.875,-5.125,3
0.375,-1.125,-0.125,-0.375,4.625,10.25,-2.25,1.625,3
1.375,-0.125,-0.125,0.75,0.125,2.125,-4.5,-1.375,0
-2.375,-0.125,0.75,0.125,1.625,-2.75,4.0,-3.125,0
0.375,-1.125,0.125,-2.375,-2.875,-5.0,-11.625,-9.625,0
2.625,1.125,-2.125,-1.5,2.5,-0.125,0.375,0.875,0
-0.5,2.375,-0.875,0.375,1.0,3.5,0.125,-1.625,2
0.75,-0.875,-2.0,-3.75,-2.125,5.375,-0.375,4.75,3
8.0,1.75,0.5,2.625,-5.875,-7.0,-3.625,-0.125,3
-2.875,-0.875,-0.125,0.0,2.625,0.875,-1.125,-3.125,2
1.25,-0.125,-0.25,0.625,1.0,-1.625,-2.0,-0.5,3
-2.125,1.75,-0.375,-0.75,1.75,6.375,0.25,-1.625,2
0.0,1.625,0.0,-1.125,-6.625,-3.75,-0.125,1.0,2
10.25,-1.125,0.5,-0.875,-4.375,-1.375,-1.125,3.75,2
-3.375,-0.375,-0.125,0.375,7.625,7.875,-19.125,-4.625,0
-2.875,0.125,-1.0,-3.125,1.5,1.375,-19.125,-0.125,0
1.5,-0.75,-0.875,-1.125,1.875,3.0,-0.25,-1.0,3
1.875,-0.625,-1.25,-0.875,-2.5,-15.25,-2.875,0.375,3
-2.625,-0.875,-1.0,-0.625,0.0,0.25,-6.5,-3.75,0
-1.75,-1.0,-0.75,-1.875,-1.0,0.125,-1.0,-1.0,1
-4.625,-0.625,0.375,-0.125,2.375,0.875,-1.0,-3.125,1
0.375,0.0,0.25,0.75,1.75,4.0,1.5,4.0,3
0.5,-0.25,0.625,-0.5,4.0,6.0,0.75,4.625,3
-1.375,-1.0,-1.0,-1.5,-1.5,-0.125,0.5,3.125,0
-0.375,-5.75,-0.75,-0.125,-0.625,2.375,-20.625,-3.375,0
-6.625,-0.5,-0.25,0.625,-2.0,5.75,4.125,3.375,0
0.625,-0.75,-1.75,0.875,1.5,-1.5,-0.875,0.625,1
2.125,-1.625,-0.75,-0.5,-0.125,-4.25,-2.375,-3.25,3
3.125,-0.5,-0.625,-0.375,2.625,2.875,-0.125,2.0,3
5.625,-4.125,-1.75,-0.875,-4.0,0.75,0.125,1.375,2
0.125,-0.5,-1.375,-1.5,-4.375,-0.25,-1.0,0.5,1
-8.375,0.0,-0.25,-4.75,0.0,-2.875,1.125,2.875,0
0.75,-2.75,-1.875,-1.125,2.125,-5.875,-1.625,-3.875,3
-3.25,-14.5,-0.25,1.25,2.0,1.375,-2.375,-3.125,0
-1.75,-0.5,-0.5,-1.625,2.25,2.25,-3.875,11.5,0
-3.75,-2.25,-2.625,-4.625,3.625,2.5,-1.0,-0.875,0
-5.0,1.375,-0.375,-0.875,6.125,1.625,0.0,-1.75,1
1.875,0.25,0.875,1.0,1.0,4.75,14.875,1.75,0
0.625,-0.5,-0.75,-0.5,1.125,0.125,-0.875,-1.25,1
6.125,-0.625,-0.5,-0.375,-3.875,0.0,1.375,1.625,1
-3.75,-0.875,-0.75,-0.125,1.875,2.125,-0.375,1.625,3
-2.5,-2.875,-2.0,0.75,1.875,3.125,-1.125,-1.375,2
-7.625,-1.5,-1.25,-0.5,4.375,0.5,-0.125,-1.625,1
-1.375,-0.375,-0.125,-0.875,-0.25,0.125,-3.5,-2.875,0
-3.25,-1.0,-0.75,-0.375,5.25,3.5,-0.25,-1.25,1
-0.5,1.125,0.125,-3.125,0.625,-4.375,-5.5,-1.875,0
-3.625,-0.125,-0.875,-1.125,-0.75,-6.5,-1.875,-1.625,3
-2.625,-0.125,-0.625,-0.5,1.625,-6.875,0.125,0.5,3
-1.75,-0.25,0.125,0.5,-0.25,2.625,1.125,0.375,3
-1.125,2.75,-2.625,-1.875,-0.375,-8.375,-2.125,-4.875,2
0.75,-1.625,0.5,-0.5,5.5,1.375,1.375,-3.625,2
-1.5,0.5,1.375,2.0,2.625,5.5,3.75,4.375,3
2.75,-1.875,-0.5,1.5,0.5,0.125,-15.625,-8.75,0
-6.5,-0.375,-2.25,-0.5,3.0,2.75,-0.375,-2.0,2
10.75,-1.25,-0.875,-1.625,-1.25,-6.375,-10.375,4.625,0
7.875,6.75,3.75,1.875,10.375,15.25,-43.375,-6.25,0
0.375,-1.875,-1.5,0.25,2.75,-3.25,-6.125,-0.125,0
0.625,-1.5,-0.125,0.625,1.875,2.25,0.75,-0.25,2
-3.375,-1.5,-1.5,-1.125,5.875,6.625,-0.875,-2.125,1
-0.625,-2.0,-2.75,-2.625,2.125,1.0,0.125,-2.0,2
0.0,-1.0,-0.25,0.25,4.375,0.25,-1.875,-1.375,1
-1.5,-1.0,-0.25,-0.375,0.625,-1.0,-5.5,-3.25,0
-3.875,-2.25,0.0,0.875,-0.25,-8.625,-14.0,3.625,0
1.625,3.0,1.75,0.5,1.25,4.875,0.0,1.625,2
-0.375,-0.625,-1.125,0.25,-1.625,3.375,1.875,-3.0,0
1.125,0.5,0.5,0.125,1.75,7.75,9.375,6.5,0
-1.375,-1.0,-0.25,-0.625,-0.625,-2.0,-0.625,-2.375,1
0.375,-0.875,-0.5,-0.875,-4.375,2.875,0.5,4.375,2
-1.75,-2.125,-2.625,-2.875,-4.625,-0.25,-5.25,-4.375,0
-1.875,-0.375,-0.875,-0.75,-0.75,-15.25,-4.625,-3.0,3
-3.125,-1.25,-0.875,-0.5,-1.5,-0.375,-0.375,-2.25,1
1.375,0.125,-0.5,-0.25,-3.75,1.5,-1.0,-0.25,1
-7.375,-1.875,0.125,0.0,0.25,0.0,-1.25,-1.75,2
-7.0,-1.875,-0.75,0.5,-0.75,-4.25,-27.5,-9.375,0
0.625,6.5,1.0,1.125,1.125,3.125,0.5,0.75,2
-0.25,1.125,-2.0,-0.75,-1.0,-1.25,5.0,0.875,2
0.75,-0.125,-0.5,0.875,2.625,-2.875,-0.375,0.25,1
0.75,0.375,-2.125,-1.25,2.75,5.875,-1.625,0.375,2
5.0,-0.5,-1.5,-0.75,-2.625,-0.125,-0.5,0.375,1
-0.125,-5.75,-1.125,-3.75,1.375,0.125,-4.375,0.25,2
-2.25,-1.125,-1.0,-1.75,0.125,-2.0,-1.125,1.625,3
-0.125,-0.5,-0.125,-0.375,1.625,0.625,0.375,2.75,3
-2.125,4.5,0.625,-0.625,-3.875,-5.875,0.25,0.5,2
7.125,-1.125,-1.375,-0.5,-0.25,6.625,-0.125,0.625,2
5.75,0.75,0.5,0.0,4.125,3.25,-0.75,-0.875,1
-0.75,0.625,0.125,-0.125,-1.25,-5.0,-2.0,-2.375,2
1.25,-0.375,0.25,-0.75,-4.625,9.125,-1.0,-3.375,2
2.375,-0.625,-2.0,-1.5,8.5,11.25,0.75,0.25,1
-0.75,-4.0,-1.375,-1.625,-3.625,-7.25,-2.875,-2.625,2
-1.5,-0.125,-1.375,-2.125,-1.5,3.375,-1.75,-0.375,1
2.0,-0.375,-0.625,0.125,0.625,-2.625,-0.5,1.375,3
1.25,-5.0,0.25,0.125,-3.0,7.25,-1.375,-1.875,2
-3.125,0.625,0.75,-0.25,-1.25,-3.375,12.5,-0.375,0
-0.875,-0.875,-0.5,-1.0,0.625,-0.875,-0.75,0.375,1
-0.25,3.75,0.25,-0.5,1.5,1.0,-18.75,-9.625,0
1.125,-0.25,-1.0,-1.375,6.0,9.5,1.0,-3.375,2
2.125,-1.875,-2.125,-1.75,-7.25,-6.5,0.75,-0.625,2
-2.125,-2.625,-0.75,0.25,-3.625,-12.375,-24.125,-3.625,0
1.75,-0.625,-0.125,0.375,0.0,10.25,0.125,0.75,3
-0.625,-2.875,-0.875,0.25,-2.875,-12.0,0.5,1.75,2
-1.375,-1.25,-0.5,0.875,-2.625,1.0,-1.125,0.75,0
-2.0,-0.875,-1.375,-0.25,1.25,-3.5,0.875,1.0,2
-0.75,-0.5,-0.75,-0.375,-4.625,-4.375,-2.125,-3.125,3
-1.375,-1.0,-1.25,-1.375,0.25,7.5,11.0,0.25,0
-4.0,-4.875,-0.5,0.625,1.875,-7.625,-1.75,-0.375,2
-0.375,-0.25,0.25,0.375,-1.5,0.75,0.0,-1.0,1
3.25,1.125,0.625,0.125,-3.125,-7.625,1.0,1.875,3
-1.25,-0.375,-0.5,-1.0,-5.625,-4.0,-0.25,-0.5,3
1.25,-0.75,-0.875,-0.625,-0.125,-5.125,-0.125,0.25,3
-1.125,-0.625,-0.5,-0.75,-1.875,-1.125,-1.0,-2.25,1
-5.75,0.0,-0.125,-1.375,2.0,0.25,-1.0,-1.75,0
0.625,-0.625,-0.75,-0.625,-0.875,0.875,-0.875,0.125,1
-2.5,0.5,0.25,1.0,0.75,-2.0,-0.375,-3.875,1
-1.125,-4.75,0.25,-1.0,-2.0,-3.25,-0.875,-1.75,2
1.0,-2.5,-1.625,-1.375,4.25,6.0,-0.625,0.125,1
4.0,-0.25,0.125,0.375,2.5,2.625,-0.375,3.0,1
-1.25,0.5,-0.5,1.125,1.0,-5.375,-4.25,-7.75,0
-3.5,-3.625,-0.625,0.0,6.375,5.625,-2.75,-1.875,2
-2.125,-0.25,0.125,0.0,-3.5,1.875,-0.25,2.0,3
-1.0,-1.25,0.125,-0.25,-2.125,-1.125,-1.5,-0.75,2
-1.125,-0.75,-0.125,0.375,0.875,9.875,-1.5,-4.125,1
-3.5,-1.25,-1.625,-2.5,-1.875,-4.75,0.0,-0.5,0
1.125,-1.75,2.875,0.375,-2.125,-3.5,0.0,5.0,2
-0.125,3.0,-0.125,1.0,2.875,0.0,3.125,0.625,0
-1.125,-2.5,-1.25,1.5,-1.625,1.25,-4.25,-2.75,0
6.0,7.0,-1.875,-0.5,5.625,6.5,2.625,-1.625,2
1.0,-0.375,0.125,-0.25,-2.0,-5.125,0.625,1.375,2
-0.5,0.125,0.25,2.5,2.625,0.25,4.625,-2.5,0
-4.75,-1.75,0.375,-0.625,2.25,-2.75,0.375,-0.375,2
-0.875,-0.375,0.25,-0.75,-2.125,4.25,0.875,-1.125,2
-3.75,-1.125,-1.375,-0.875,-0.5,4.125,-0.375,-0.875,1
-1.875,-2.0,-1.0,-0.75,-0.25,2.0,-1.375,-2.875,1
-1.0,2.75,-1.75,-1.0,-2.125,-2.125,-7.875,-0.5,0
-1.0,-0.5,-1.0,-1.375,-0.75,-0.375,1.125,0.25,0
-2.375,-2.0,-0.375,-0.25,-3.5,-4.125,-0.875,0.625,1
-1.125,-1.25,-1.125,-0.875,-2.5,-3.875,-2.0,2.375,3
-9.125,0.875,1.125,6.125,-3.75,-3.0,-0.375,-3.25,0
4.25,0.0,-0.5,-0.375,-0.125,0.375,-0.75,0.5,1
1.25,-1.0,-0.625,3.0,3.375,-4.625,-10.625,-2.5,0
3.25,1.25,0.375,1.25,2.5,7.125,2.0,0.375,0
-2.625,-0.75,-1.0,-1.125,-4.625,-3.875,-1.5,0.375,2
0.125,0.0,1.25,0.625,-0.875,7.625,2.125,-2.25,3
3.125,-1.0,-0.375,-0.75,-0.625,-8.625,1.5,5.375,3
-1.125,-5.75,-2.75,-1.5,0.875,-0.375,-1.75,3.75,2
1.375,-1.875,-1.75,-1.25,-0.375,5.25,4.75,2.625,2
-4.125,-4.875,-3.75,-1.375,-3.5,-4.5,-1.5,-3.875,2
4.0,5.125,1.75,0.75,-1.0,-4.625,-5.125,-2.625,2
-3.0,-0.25,-0.75,-0.875,-0.5,0.625,4.75,2.625,0
0.5,-1.125,-2.0,1.625,1.5,-0.625,-0.875,-0.25,2
-1.875,-4.5,-1.375,-1.75,-0.75,-0.625,0.5,-3.0,2
-1.25,-0.375,-3.375,-0.625,-1.875,-1.25,0.25,-1.875,2
-1.25,-0.625,-0.875,-0.625,-0.125,1.625,-1.0,-2.875,3
-0.125,-1.375,-0.5,-1.0,2.25,0.375,-9.0,-2.75,0
-6.75,-1.625,0.625,-0.875,-1.0,-2.875,-1.375,2.5,2
-1.875,-1.625,-1.625,-1.5,0.0,-2.875,-0.375,2.25,3
5.75,2.75,-1.5,-2.25,3.75,1.125,2.125,4.625,0
4.0,-0.5,0.5,-0.5,0.0,-1.5,-27.0,-4.625,0
2.25,3.5,0.125,-1.375,3.625,8.875,-0.375,-0.375,2
-6.5,0.25,-1.75,0.25,2.125,0.5,2.375,-4.125,2
-2.25,-0.125,-1.25,-1.25,-4.875,-0.125,18.0,4.875,0
0.25,0.5,-0.75,-2.75,2.75,10.25,0.875,-0.375,3
0.0,0.75,0.375,1.25,5.0,-0.5,-1.375,-2.375,0
-5.75,-1.375,-3.875,-5.5,3.125,2.625,-9.125,-0.25,0
6.0,0.125,-1.625,-1.75,-1.875,-1.125,-3.875,-2.5,1
3.25,-1.625,-1.125,-1.625,1.875,3.375,1.375,-1.5,1
-2.25,-1.75,-1.75,-0.625,1.125,-7.25,-1.75,-5.375,2
-1.375,-1.0,-0.25,0.75,-2.5,-2.5,-0.25,0.75,3
-4.875,0.25,-2.125,-3.875,-6.875,-15.375,-1.125,-9.0,3
-3.5,-0.25,-0.125,-2.0,2.375,1.375,-9.0,2.875,0
-1.0,-1.0,-0.25,-1.75,-6.0,-6.375,-2.875,-1.625,1
2.375,1.75,-1.875,-2.875,-3.875,0.5,3.625,-5.5,2
-2.25,0.375,-0.25,0.625,0.25,7.375,1.625,4.125,3
-4.75,0.875,-3.125,-2.625,-2.0,-4.875,-3.625,-4.875,2
-1.125,-0.375,-0.125,-0.375,0.125,-1.5,-1.125,-0.875,1
-2.25,-0.625,-1.375,-1.0,-1.25,-3.875,-1.375,-1.5,3
-2.25,1.0,0.0,1.375,1.125,-3.0,2.625,-4.125,0
-4.125,-1.875,-1.5,-1.5,2.0,4.75,-0.75,-1.25,1
19.75,-3.5,-2.125,-3.375,-5.0,-7.75,-1.0,0.75,2
4.75,0.625,-0.875,-1.5,1.875,0.375,-1.875,4.25,0
-5.125,-0.75,-0.75,0.375,2.0,-6.25,-1.125,-2.125,0
1.5,-1.75,-0.75,-1.0,-4.875,-5.25,0.125,1.25,1
-5.0,-2.875,-2.25,-1.875,2.5,1.625,-2.0,-2.375,3
-5.375,-1.25,-1.25,-1.0,-1.125,-12.25,-1.375,-2.5,3
0.0,-1.375,-1.5,-1.75,-0.5,-10.125,-3.5,0.25,3
-0.375,-0.75,-0.375,-0.25,2.625,-0.375,-0.5,-0.5,1
3.125,4.0,0.75,-0.375,-2.625,-3.5,2.125,1.0,2
2.375,0.125,-1.375,-1.125,-1.625,-6.25,-1.125,1.25,1
-5.0,-0.75,-0.625,-1.125,2.5,4.875,-0.875,-0.25,1
1.5,-0.75,-0.875,-1.0,3.0,4.5,1.75,2.25,3
3.5,-1.5,0.0,1.375,1.75,-0.25,-6.375,4.625,0
-7.0,-1.125,-1.0,-0.375,0.5,2.75,1.0,-4.125,0
-3.875,-1.875,-1.125,-1.375,1.25,4.125,-1.375,-0.875,3
-3.875,-0.75,-0.25,-0.75,0.375,1.0,-0.625,-0.5,1
-1.375,-0.375,-0.5,-1.0,2.75,5.75,-2.25,-1.875,3
-6.25,0.75,0.875,-0.375,-11.625,-12.375,-1.375,0.125,1
-0.75,-2.125,-2.0,-5.875,-5.375,-3.125,-22.0,-16.5,0
-0.875,-3.375,-2.25,-2.125,-2.375,5.125,-0.25,-2.375,2
-0.125,-1.0,-1.0,0.125,0.625,2.25,-0.625,-0.75,1
-5.25,-0.25,-0.125,-1.125,0.875,-0.625,-2.0,-2.375,0
1.625,-0.875,-1.375,-1.375,-2.75,1.0,-1.375,-0.5,1
3.125,-1.5,-1.375,-0.75,-1.875,-3.125,-0.75,0.0,1
-3.0,-0.25,-0.25,1.125,1.75,3.25,0.0,-2.75,3
-0.75,-2.625,-0.875,-0.875,2.875,6.5,-0.875,-2.125,2
1.125,-0.125,0.875,1.875,0.625,2.25,0.875,1.25,2
-2.5,-0.625,-1.25,-0.75,1.0,6.625,0.125,0.125,1
0.125,-0.5,-0.25,-0.875,-2.625,-3.375,-1.625,-0.375,3
3.375,-0.875,-0.875,-1.0,-3.0,-8.375,-2.625,-0.375,3
-2.75,8.5,-3.25,-3.25,-1.25,-9.0,0.125,-3.25,2
0.5,-0.25,-0.375,0.25,1.0,6.0,-0.75,2.625,0
-0.875,-1.875,-0.25,0.875,1.0,-2.0,-31.75,-2.5,0
-1.5,1.125,-0.625,-0.625,-2.375,-0.875,4.5,2.125,3
1.25,-0.625,-2.625,-2.25,-3.375,-6.625,-1.125,0.375,2
-0.625,-0.25,-0.25,-0.25,2.375,1.5,-6.25,0.0,0
-1.0,-0.375,-0.25,-0.75,-1.375,-7.25,-1.625,-1.0,3
2.875,0.5,0.0,-0.5,-2.375,3.75,0.25,4.25,3
1.875,2.25,2.0,-0.5,1.75,3.0,-6.375,12.0,0
-2.125,-0.625,-0.875,-0.625,4.875,0.75,3.25,-0.125,3
4.875,0.0,0.625,0.0,-2.125,-2.875,-2.625,1.25,3
-3.625,-0.5,-2.125,-3.875,0.625,-4.625,1.375,2.5,3
2.875,-7.875,2.0,-1.0,-4.875,-6.625,-1.0,4.375,2
-5.0,-2.125,-0.625,-1.625,-3.25,-4.375,-0.875,-1.625,3
2.375,-1.25,-1.0,-1.5,-6.25,-2.375,-1.0,0.25,1
-1.625,-0.625,-0.875,-1.0,1.125,1.125,0.875,-0.5,3
-4.75,0.5,0.0,0.125,0.5,10.375,-0.875,-0.625,2
-0.125,-0.375,-0.5,0.75,-1.375,-4.25,-4.75,-2.375,0
-3.875,-0.75,0.0,-0.375,-2.375,-0.125,-1.25,-0.625,1
-1.875,0.75,-0.5,-2.25,-3.375,-1.875,-6.75,-0.625,0
-2.0,0.375,-0.625,-1.125,-0.375,0.5,-20.0,-6.375,0
-4.875,-1.125,-0.75,-0.875,-2.5,-2.375,-1.375,-0.875,1
1.25,-1.0,-1.375,-1.25,-3.125,-1.25,-1.375,2.625,0
-0.5,-0.25,0.0,-0.625,-0.375,1.5,-1.0,-2.25,1
0.5,-0.5,0.25,0.625,-1.625,0.625,4.875,3.0,3
-2.875,-2.25,-1.75,-1.75,16.375,16.25,-1.375,-4.0,1
-3.125,-0.625,-0.625,-1.125,-0.25,-3.375,-13.625,-1.25,0
-1.5,1.625,0.0,-0.25,1.125,-2.75,-1.625,-3.5,2
0.25,-0.125,-0.25,-0.75,2.75,0.125,-0.25,1.25,1
-2.875,2.625,0.25,-0.875,-0.125,8.625,1.125,-3.375,2
2.375,-0.375,-0.125,0.625,-8.625,-12.125,-1.125,1.75,1
-3.75,-2.125,-0.875,0.0,-2.75,1.5,1.75,-0.875,3
-0.875,-0.875,0.0,-0.25,-1.5,-3.625,0.5,0.0,1
-10.75,-2.375,-1.25,-0.375,0.25,-0.75,-3.125,0.5,0
-4.25,0.0,-0.25,0.625,-1.875,2.0,0.25,-0.75,2
-2.375,-1.0,-1.75,-1.875,2.125,5.0,-0.375,0.75,1
1.0,0.0,-0.375,-0.125,0.5,1.125,1.625,2.625,3
-0.625,-8.5,-4.5,-3.125,-4.375,8.0,0.625,-1.5,2
-1.125,-1.5,-3.125,-3.75,-0.25,-1.75,-2.625,-2.0,2
-8.5,-4.25,-1.875,-0.875,2.625,5.75,1.25,-2.5,2
3.375,-0.5,-0.875,-0.75,-0.625,1.5,-0.375,1.125,1
-3.875,-0.375,-1.5,-3.375,-0.625,4.5,1.25,-3.625,0
-1.625,-0.875,0.75,0.875,1.875,-8.25,-2.25,-0.25,3
-4.875,-2.125,-2.5,-9.25,-0.125,-3.125,1.5,-2.625,0
2.625,1.25,-0.625,-0.25,4.75,-0.5,-0.125,-2.625,2
2.375,-5.125,-1.75,-1.0,-2.625,-4.625,1.75,-0.125,2
1.875,0.0,-0.75,-1.0,-2.375,-9.5,-2.0,0.125,3
4.25,-0.125,-0.625,-1.125,-2.375,-4.5,-0.625,1.375,3
-0.5,-0.75,-0.875,-1.75,2.75,0.5,-0.25,1.375,3
0.125,-0.375,-0.25,-2.75,1.125,-1.625,-3.25,3.75,0
-0.75,0.25,-0.125,-1.125,1.5,0.25,-14.375,-6.375,0
-4.375,-0.25,0.125,0.625,-1.625,1.875,-0.625,-0.375,2
0.375,-7.25,-1.5,-0.875,-3.875,-6.625,-1.25,2.125,2
-6.375,-3.875,-2.25,-6.75,-1.125,3.125,-2.0,2.5,3
-10.25,-2.5,-0.75,-0.125,0.125,2.0,0.0,-2.0,2
-2.625,-0.5,-0.875,-1.375,0.875,2.875,-0.5,-0.625,1
7.125,-1.375,2.0,-0.75,0.0,-2.25,0.75,3.125,2
-1.25,0.125,-0.25,0.0,2.5,5.5,-0.375,-2.75,3
-0.625,1.125,-0.375,0.125,0.25,1.375,-1.25,-2.625,2
-12.625,-0.25,-0.375,-0.25,-1.75,-9.0,0.75,-3.0,2
-5.75,1.25,-1.0,-0.75,1.625,2.875,6.75,-0.25,0
3.0,2.5,0.125,0.5,2.25,-0.75,-12.25,-6.25,0
-0.625,-0.5,-1.25,0.25,4.0,13.875,0.125,-1.5,3
1.375,0.375,-0.25,0.5,1.75,1.0,0.375,-2.5,0
-0.75,-1.5,-2.25,-0.25,-0.25,1.875,-0.125,2.625,0
-8.875,-11.25,-3.75,-1.5,3.25,3.5,-0.5,-2.625,2
2.5,-0.875,-0.5,0.875,3.5,4.25,-1.125,4.25,3
-0.375,-2.0,-1.875,-2.875,1.875,5.375,6.5,1.375,3
0.25,-1.125,-0.875,1.5,3.5,-0.625,-0.125,0.25,1
-0.75,-0.75,-1.5,-0.625,-0.125,-1.0,-0.625,1.125,0
-0.25,-0.25,-0.375,-0.5,0.25,0.875,0.75,1.5,3
-4.875,0.125,-0.875,-4.0,-0.625,5.75,4.375,2.25,0
4.0,0.875,-0.625,-0.375,3.0,-0.75,-0.125,-0.125,1
-1.5,0.125,-0.125,0.375,1.375,1.5,0.375,-1.125,1
-1.375,-1.0,-2.0,-1.0,1.5,-9.375,-1.5,0.125,3
3.5,0.25,0.375,0.0,0.875,2.625,10.5,4.0,0
-6.75,-0.5,-1.0,-1.125,0.625,0.625,-6.375,-6.75,0
0.625,0.5,-1.0,-2.0,-2.0,-1.25,-1.0,-0.5,2
-2.625,0.0,-0.75,-0.875,-2.0,0.0,-0.375,0.125,1
-1.25,-0.625,0.125,0.375,-2.375,-1.0,1.125,2.25,2
-3.0,-0.25,0.125,-1.125,-1.5,-7.25,-0.875,2.625,3
-0.375,-1.25,-0.75,-1.5,-1.375,-1.0,-1.0,-0.25,1
-8.0,-6.125,-1.375,-0.625,-0.5,-5.125,0.5,-5.75,2
-1.25,2.125,-1.5,-2.5,0.25,-2.75,9.75,5.75,0
4.125,-0.375,0.0,0.0,1.875,0.375,-0.875,0.375,1
-4.5,0.375,-1.75,-2.375,0.0,-5.0,6.375,1.25,0
0.125,-0.5,0.5,0.0,-7.5,-3.625,-0.5,1.0,1
-2.5,0.625,0.5,2.5,0.125,4.875,-3.5,3.375,0
-3.25,-0.875,-0.125,0.375,-2.75,-1.5,-0.375,-0.375,1
-5.0,-0.125,1.0,-1.5,-9.75,-8.0,-3.0,-2.875,2
-0.25,-1.5,-1.375,-0.875,-0.875,-1.625,-0.25,0.25,1
-3.0,-0.875,-1.25,-1.0,1.875,2.0,-1.625,-1.25,1
-1.125,-1.375,-0.25,-0.5,5.0,1.875,0.0,-0.25,1
3.75,-0.25,-0.375,0.375,1.75,0.875,2.875,-2.125,0
-6.375,0.25,-1.125,-0.125,1.5,8.75,-2.25,2.625,3
0.125,0.0,0.25,1.625,1.875,6.0,8.625,4.0,0
-3.625,1.0,-0.5,-0.625,-1.75,2.625,-15.5,3.625,0
-1.875,-1.0,-0.75,-0.5,0.875,-0.75,-0.875,-2.375,1
4.0,-1.375,-2.625,-4.75,-1.0,0.25,1.375,-1.0,0
-4.0,0.0,0.0,-0.625,-4.125,-3.75,3.75,-4.625,3
0.0,-0.875,-0.875,-1.125,-1.125,-8.625,-1.625,0.0,3
1.5,-0.875,-0.375,0.0,-7.25,-3.5,-0.75,2.375,1
-0.875,-0.125,-0.375,-0.5,-8.125,-6.25,-1.0,-2.375,1
-5.0,-1.75,-1.0,-0.625,0.75,-2.125,-3.0,-3.0,3
-0.125,-0.875,-1.875,0.0,3.0,7.0,1.0,1.0,3
-1.125,-1.5,-1.25,-1.375,2.625,-4.25,-2.25,0.875,3
-2.75,2.625,-1.5,-0.75,-2.0,-0.5,-4.5,1.375,0
-2.375,0.0,-0.25,-2.5,-2.625,0.25,3.5,2.375,0
1.0,0.0,-0.875,-0.875,1.5,-1.875,0.75,-1.0,3
0.125,-0.125,-1.125,-0.75,1.75,6.375,1.5,-2.75,3
0.375,-1.0,-1.375,0.125,1.75,-0.25,-0.375,2.25,1
-2.375,-0.5,-0.125,0.0,-2.875,-6.125,-1.75,-3.25,3
-8.125,-1.625,0.875,1.75,1.125,5.5,-1.5,-0.875,2
-1.125,-1.125,-0.5,-1.625,1.125,3.125,-8.5,-0.125,0
-0.375,-0.625,-1.25,-1.0,0.875,-1.375,-0.75,0.375,1
-2.0,-2.0,-0.875,-1.375,0.75,-6.0,-1.25,-1.875,2
1.875,-0.625,-1.125,-0.375,-0.375,-2.0,-1.0,0.75,1
0.25,3.5,-1.125,-0.75,-3.25,-6.25,-2.875,6.125,2
0.25,0.0,-0.375,-0.375,2.75,3.625,0.0,-1.75,1
-3.375,1.625,-0.5,-0.25,-2.625,1.375,0.375,-4.0,2
-0.5,-0.875,-1.75,-5.125,-1.375,1.375,1.125,2.75,0
-1.625,-0.25,0.625,1.0,2.0,11.25,3.25,-1.125,2
-0.75,-0.375,0.0,-1.125,-2.0,-2.5,-1.125,0.25,3
-3.375,-1.625,-1.625,-1.625,0.125,-6.25,-3.0,-4.5,3
-1.875,0.125,0.5,-0.875,-6.375,-2.5,0.625,2.25,3
0.125,-2.125,-1.0,2.125,0.25,-10.0,-3.75,-7.5,3
-1.5,-1.375,-0.875,-1.375,-3.875,-5.375,-1.375,-3.375,3
-2.375,0.0,-0.5,0.5,0.5,-1.5,-0.375,-1.25,1
6.25,0.5,-0.5,2.75,0.375,3.625,15.375,4.375,0
0.875,-0.375,-0.625,-1.25,1.25,1.875,-0.875,-1.5,1
-2.5,0.125,-0.75,-0.875,-1.0,0.75,1.5,4.625,0
-0.375,-1.25,-0.875,0.375,1.25,-1.0,-0.75,-0.875,1
1.25,1.875,-2.125,-0.75,0.875,-0.25,-1.0,1.125,2
-0.75,-3.75,-1.125,1.5,2.5,4.625,1.75,-2.0,0
-2.125,-0.25,-1.375,-0.875,-0.5,-1.25,-1.375,-1.625,1
-0.125,-5.25,-1.375,-0.625,2.0,6.75,-3.875,-0.625,2
0.75,-0.25,-0.5,-3.0,1.0,0.875,6.875,-1.125,0
-1.875,-1.375,-1.875,-2.25,7.25,6.0,-0.125,-0.875,1
-3.625,-2.0,-4.125,-6.5,1.75,3.875,-12.5,-2.5,0
-3.875,-1.375,-0.625,-2.0,-2.125,-10.5,-2.875,-3.75,3
1.0,-4.25,-0.75,-0.75,-2.125,-2.375,-2.5,0.75,2
1.125,-0.75,-0.5,-1.0,-4.75,-1.75,0.375,2.375,1
5.625,0.0,-1.0,-1.125,-2.0,2.75,-1.125,0.375,1
-1.125,-2.0,1.0,-0.25,1.75,6.125,10.875,6.0,0
0.125,-0.5,-0.75,-1.375,-2.125,-0.25,-0.875,-0.25,1
-2.375,-0.75,-0.75,0.625,3.25,10.25,0.0,-3.25,3
0.125,-1.625,-1.25,-1.0,2.0,3.125,1.0,1.25,3
1.5,-0.875,-0.5,-0.5,1.75,-0.125,-0.75,-1.625,1
-0.875,-1.5,-1.375,-2.875,-3.625,-11.0,-2.5,-1.75,3
-3.375,-0.5,-1.625,-1.375,-2.875,-8.375,-24.375,-5.375,0
-3.125,-1.0,-1.5,-0.875,-1.125,-4.5,-2.125,-4.125,3
-2.25,-2.625,-3.125,-1.375,-0.75,0.0,-1.375,0.375,2
-0.125,-0.625,-1.125,-0.875,-2.5,-0.375,0.875,-4.0,3
-2.625,-0.25,-0.875,-1.0,4.5,4.125,-0.25,-1.375,1
1.0,-1.25,-0.75,-1.375,4.625,2.25,-1.0,-0.625,1
-9.625,-4.875,-0.125,-1.0,-1.75,5.375,-1.0,-2.625,2
-0.625,-1.0,-0.75,0.0,-7.25,-6.125,-1.25,-1.0,1
5.5,-1.625,-0.5,0.0,-0.375,0.375,-3.125,1.25,0
7.5,-1.5,-2.25,-1.25,2.375,7.125,-11.0,3.625,0
-1.5,-4.0,-0.125,1.5,2.5,3.625,7.25,-1.75,0
-2.0,-3.875,-0.75,-0.5,1.25,0.875,-0.375,0.125,2
-0.125,-1.375,-1.0,-1.375,1.25,3.375,-0.875,0.25,1
-2.625,-1.0,-0.75,1.375,1.375,3.625,11.75,-0.75,0
1.125,0.25,-0.125,-0.375,4.0,-2.5,-1.5,0.0,1
-2.75,-0.125,0.25,0.5,-0.25,-2.625,-1.25,-2.375,3
0.5,-0.75,-2.0,-1.125,3.125,3.625,-0.5,-0.375,3
2.25,0.5,-1.75,0.125,-2.5,2.125,17.625,1.625,0
0.875,-1.75,-0.5,-0.625,9.125,5.5,0.5,3.0,1
-2.5,-0.375,-0.625,-0.875,4.125,3.625,-1.5,-0.875,1
-1.875,-2.25,-1.125,-0.25,5.25,2.5,-0.875,-1.125,1
1.125,3.375,1.25,1.75,-0.875,0.5,-5.25,-1.375,0
-0.375,-1.75,-1.75,-2.625,-0.375,-0.75,-2.5,-1.75,0
-2.125,-5.625,-0.5,0.375,3.375,-7.0,-0.75,-4.5,2
-1.125,-0.75,-2.125,-2.5,-1.25,2.0,-2.625,-3.5,2
0.25,-0.25,-2.875,-2.0,-1.375,-14.25,-5.125,-3.25,2
4.25,-2.0,-0.125,-0.375,3.625,0.125,-1.375,-6.875,2
-2.25,2.125,0.75,0.875,0.25,-0.875,0.75,-1.625,0
-1.625,-1.5,-1.875,-0.75,-0.5,-4.625,-3.0,-0.75,3
-0.375,0.0,-0.625,-1.125,8.0,4.75,0.625,1.375,1
-4.375,0.75,0.25,1.5,-0.125,-0.875,1.125,1.125,3
-1.5,-0.5,-0.625,-0.625,3.25,-3.875,-1.125,-1.75,1
-6.25,-2.125,-0.5,-0.875,3.125,2.0,-0.125,-1.75,1
-2.5,-0.625,-1.25,-1.0,-0.375,1.5,-2.875,-6.875,3
0.375,-0.75,-0.125,0.25,2.0,-0.5,-1.125,-3.25,1
-2.625,-0.25,-0.375,-2.5,-1.75,0.5,1.75,1.75,0
0.25,-0.75,-0.875,-2.125,2.125,3.625,-0.625,-2.0,1
0.25,-8.125,-2.625,-1.375,-2.25,1.125,-2.5,-1.5,2
1.875,-1.375,-3.0,-4.75,-2.5,2.0,-1.5,0.25,3
-2.0,-0.375,-0.125,0.75,5.125,1.625,-0.5,-0.125,1
-3.75,-2.125,-0.75,-0.625,0.375,3.0,-0.875,-4.125,0
-2.0,-1.375,-1.625,-1.5,-0.5,-3.5,-2.5,-2.625,1
9.375,0.25,-0.375,-0.75,-2.75,1.75,-0.25,1.0,1
4.0,2.25,-1.0,-0.375,0.75,4.125,-1.375,-0.125,2
-2.375,-0.875,-1.25,-1.375,-1.125,-8.5,-1.375,3.25,3
4.125,-0.75,-1.25,-0.875,0.375,-3.875,-0.875,-0.75,1
-0.625,-4.0,-1.0,-1.375,-1.25,0.5,-0.625,-3.375,0
1.0,-0.375,-0.5,-0.25,-3.0,-10.625,-0.5,-4.25,3
-5.125,-4.25,-0.875,0.0,-0.875,-0.125,1.25,-0.375,2
-3.375,-0.5,-0.75,-0.875,-1.875,2.125,-0.75,-0.5,3
10.5,-0.375,-1.5,-3.375,-2.125,4.125,2.0,8.0,0
1.875,1.125,0.125,-0.875,-2.5,-2.25,-0.25,2.125,2
-1.5,-0.125,-0.25,0.0,-6.125,-6.75,0.125,-1.25,3
-3.625,1.0,1.375,1.875,-3.5,-2.375,0.125,-4.125,2
0.125,2.5,0.875,3.5,0.875,2.0,1.5,4.125,3
1.625,0.0,-0.375,0.125,0.75,2.375,-1.5,-0.5,3
-1.25,1.625,-0.625,-0.75,1.75,-3.625,-0.625,0.25,2
-1.375,-1.25,-0.75,-2.5,-0.25,-0.875,-2.25,-3.625,0
-5.0,-0.125,-0.625,1.0,0.5,6.0,0.5,-0.375,3
-3.375,-1.5,-1.125,-0.75,3.0,6.625,-19.75,-6.375,0
-1.75,-1.125,-0.875,-1.25,1.125,0.375,-0.25,-1.125,0
-4.375,-0.875,0.75,-0.875,-6.625,-8.125,-0.5,-2.625,1
-2.875,1.75,0.75,0.25,-1.75,0.875,-2.625,-0.375,0
1.25,-0.375,-0.625,-0.625,0.375,1.75,-0.25,-1.5,1
-0.625,1.5,-1.5,-0.5,-1.125,3.25,-5.0,-1.125,0
2.0,0.0,-0.125,-0.375,0.125,6.0,-0.375,-0.875,3
-0.625,-3.5,-1.25,-0.75,-0.625,7.375,-1.0,-4.25,3
-0.5,-0.5,2.875,1.875,8.125,13.0,1.875,3.125,2
-0.875,-5.5,-1.375,-3.5,-0.125,7.125,4.5,-2.375,3
-1.625,-1.0,-1.0,-3.25,0.125,-18.875,-6.75,-0.5,3
-1.125,-1.5,-0.25,-0.375,-3.875,2.75,-1.5,-1.75,1
-1.0,-1.5,0.875,0.5,-0.5,-6.125,-1.0,-2.625,2
-1.125,-0.625,-1.125,-2.75,-3.25,-3.625,8.125,-2.125,0
-0.875,-6.0,-1.125,-1.25,6.0,-1.375,-5.25,-5.0,2
-3.5,-3.875,-1.375,-0.25,-0.625,4.0,1.75,1.25,2
-0.875,-1.0,-1.5,-1.5,-2.75,-2.0,-1.125,-1.0,1
-0.25,-2.875,-2.25,-1.875,-5.0,-14.875,-3.125,0.375,2
-1.0,0.0,1.0,0.125,-4.125,-0.625,-1.375,0.375,2
4.625,-0.25,1.375,5.75,-1.625,-7.875,-14.5,3.125,0
-2.0,-2.5,-1.25,-0.5,3.0,3.5,0.125,-0.375,1
1.375,7.25,0.875,0.125,0.125,-3.375,0.25,5.75,2
-2.375,-0.125,-0.375,-0.5,-1.25,-5.75,-0.5,-0.625,1
-4.875,-1.625,-1.625,-1.75,0.875,3.5,-12.375,-7.75,0
-7.125,-1.125,-0.375,-1.75,-2.625,-10.625,-1.25,-3.625,3
-4.375,0.375,0.0,0.875,-1.5,-0.75,0.625,6.0,0
-2.125,-1.25,-1.75,-2.375,-4.375,-12.625,-2.875,-2.0,3
-2.5,-0.125,-1.25,-0.375,-4.0,-3.75,-0.25,-1.25,1
-2.875,-1.5,-0.875,-0.25,-6.5,-2.25,0.625,-1.5,1
-1.125,-0.5,-1.25,-2.625,0.375,7.25,-0.875,-0.5,1
-0.75,-1.625,-1.0,-0.875,-7.0,-2.5,-0.75,-0.125,1
4.875,4.375,-1.25,-1.0,5.0,-3.5,0.375,-3.5,2
1.875,0.25,-0.75,1.0,3.875,8.125,1.0,3.75,2
-2.25,-0.25,-1.625,-1.125,3.125,6.625,-0.875,-3.875,3
-1.125,-1.5,-1.125,-0.75,0.875,6.5,0.0,-0.25,2
-1.0,-0.75,-1.625,-2.0,-0.625,-0.25,-1.875,-1.5,1
2.5,-0.75,-1.25,-0.75,-0.75,1.75,-1.25,-1.375,1
-0.875,-1.0,-0.75,-0.75,0.0,-3.375,-1.25,-3.125,3
0.25,-0.5,0.25,0.0,1.125,6.875,0.25,-0.625,3
-0.5,-0.5,0.0,1.875,4.625,8.875,1.5,1.0,3
1.875,-1.0,-0.125,0.625,8.625,15.5,0.375,3.125,3
-2.25,-1.0,-1.375,-1.5,1.25,-0.5,-1.75,-1.125,1
-7.375,-1.0,-0.5,-1.25,8.625,1.625,-0.25,-1.25,1
3.5,2.75,-0.75,-0.375,-1.0,-4.875,-2.625,2.25,2
-2.875,-0.875,-0.625,1.375,0.875,-2.625,-3.375,-1.25,3
-2.875,-1.5,-1.875,-3.125,-2.5,0.875,0.0,-0.75,1
2.75,2.5,-1.125,-0.625,-0.625,3.375,5.0,1.625,0
-0.25,-1.625,-1.25,-0.625,-1.0,-2.25,-0.625,-1.625,2
-6.0,0.0,-1.25,-0.625,-0.25,0.375,-1.375,-5.125,1
-2.5,-1.625,-0.875,-0.25,-4.375,0.125,-2.25,-1.0,1
-3.75,-3.875,1.375,2.25,5.625,1.375,0.875,-5.0,2
0.25,-1.875,-0.375,-0.5,-5.125,-3.625,-1.0,4.0,1
1.0,-1.0,-0.875,-2.125,-1.0,1.875,-0.5,1.5,1
-3.25,-13.75,1.75,0.75,2.5,2.125,3.75,-0.25,2
-4.875,-2.125,-1.75,-0.875,6.25,3.875,-0.75,-1.875,1
-5.25,-0.625,-0.875,-1.375,-8.375,0.75,-1.25,0.25,1
-1.5,-1.375,-1.5,-1.75,-2.625,-2.25,-1.125,-1.125,1
0.25,0.875,0.25,-1.0,2.75,4.375,0.25,-3.25,2
-3.25,-1.25,-1.125,-0.75,1.75,3.5,-1.25,-2.125,1
-2.625,-0.75,0.125,-3.375,0.0,0.75,-0.75,-0.75,3
-2.25,-1.375,1.375,0.5,-1.875,-3.375,-1.75,-0.75,1
3.875,1.5,0.375,-1.875,0.625,-0.125,-5.25,0.0,0
2.5,0.375,-0.625,-0.125,-2.625,-6.875,-0.625,1.25,1
6.75,2.5,-1.0,-0.625,-4.125,-1.625,-0.625,-3.25,2
0.875,-0.25,-0.375,-0.25,1.875,-0.875,-2.25,-2.625,3
2.625,-0.125,-1.125,-0.25,-1.625,-2.75,-17.25,-1.75,0
0.625,-0.5,-1.125,-1.0,0.75,-2.0,-1.375,-2.875,3
-4.25,-5.625,-2.625,-1.375,-1.875,-1.125,-1.875,-0.875,2
0.375,-1.25,0.125,-0.75,-1.75,0.0,-1.125,-2.375,2
-3.75,-0.75,-1.0,-1.375,-0.75,4.25,-0.875,-1.875,3
-0.25,-2.5,-0.75,2.375,1.625,-9.625,3.25,12.125,3
3.625,-0.25,-0.375,0.0,-0.5,-0.125,-0.375,0.0,1
0.25,-0.375,0.125,0.625,3.75,3.875,1.0,-2.25,3
-1.5,-0.875,-0.625,-0.625,4.0,-12.625,-1.375,-0.5,2
-0.625,-1.0,-0.75,-0.25,7.25,-12.0,-1.875,-0.625,3
-0.625,-0.375,-0.875,-0.5,-1.125,-3.625,-1.125,-0.75,3
-3.0,-3.125,-2.125,-0.25,2.25,-2.375,-3.0,0.25,2
0.25,-0.875,-0.5,-0.75,-3.5,-0.625,-0.75,-2.75,1
1.0,1.25,-1.125,-0.25,-0.375,-7.875,-2.0,-3.375,2
-2.5,-0.375,-0.75,0.375,1.375,1.75,-2.75,-5.375,1
-3.25,-1.625,-1.0,-0.875,-1.0,-1.75,-2.125,-4.25,3
1.375,-1.75,-1.75,-0.625,1.0,-1.5,-0.25,0.875,0
-0.5,0.75,-2.875,-2.5,1.375,-3.5,-2.0,-0.375,2
-7.375,-4.375,0.0,2.375,9.5,12.75,-0.125,-1.25,2
1.5,-1.0,-1.5,-0.625,-0.125,-1.0,-10.125,-0.875,0
0.25,0.0,-0.5,-0.5,0.0,0.0,-0.5,0.0,1
3.0,0.875,0.75,0.25,-2.0,-0.375,1.875,-2.5,2
0.5,-2.375,-1.25,-0.75,3.625,6.375,-1.25,-4.625,3
-0.875,-0.375,-0.25,-0.625,0.0,-1.25,-0.25,-0.625,0
-3.5,0.625,-0.75,-0.5,1.75,-0.5,-3.75,-4.125,2
0.0,-0.375,-1.5,-3.5,-2.375,3.875,1.5,-0.75,0
2.375,-0.625,-1.125,-1.0,-0.375,3.375,-0.125,0.375,3
6.125,0.375,1.375,2.625,3.5,5.5,8.875,5.375,0
-4.0,-4.625,-1.5,-2.25,-0.25,1.0,-1.875,-4.625,2
3.0,0.0,-0.625,-1.375,-2.875,0.125,3.25,6.625,0
0.625,9.5,0.25,1.875,-1.75,-3.25,4.0,3.375,0
0.375,-1.25,-1.375,-2.125,0.375,1.375,-7.5,-1.125,0
5.75,7.75,0.5,2.25,-2.5,-0.25,-3.25,-4.5,2
0.375,-0.5,-0.5,-0.375,0.5,9.125,0.625,-1.125,3
-0.75,0.75,-1.375,-1.0,-0.375,4.125,-0.125,-1.125,2
-0.25,-1.0,-0.625,0.125,-3.5,-1.375,-0.125,1.25,3
4.625,-0.75,0.0,1.125,0.75,0.5,2.125,2.0,0
-3.0,-1.375,0.375,0.375,-3.5,-4.125,-1.5,-1.75,1
3.5,-0.125,0.125,-1.0,-0.375,3.75,-0.75,-0.875,2
1.5,-0.125,-0.25,1.125,5.125,8.5,0.25,-1.5,3
-5.75,-0.125,-0.375,-1.125,-5.375,-4.125,-0.25,-3.5,3
-4.0,-1.625,-1.625,-0.625,-1.875,3.25,-0.625,-1.5,1
-6.25,-1.25,-0.75,-0.5,4.25,-0.5,0.0,-0.5,1
-0.875,-1.125,-1.375,-1.25,-3.0,-12.5,-2.75,-1.875,3
-0.5,-1.25,-1.625,-0.625,-1.25,-0.75,-2.25,6.5,0
0.25,0.75,-1.75,-1.375,2.5,-0.375,-1.75,-3.25,2
-1.75,-2.875,-0.625,-1.125,-1.0,-1.0,-0.125,-0.25,2
-0.5,-0.5,-0.5,-0.625,0.75,0.125,-1.0,-4.875,3
-0.75,0.125,0.625,0.5,-0.625,-4.625,2.625,4.0,3
-1.75,-1.25,-1.625,-1.875,0.0,-4.375,-2.75,-4.0,3
-0.125,-1.0,-0.875,-0.625,3.25,0.25,-0.875,2.875,3
-2.75,2.75,0.75,1.125,-0.375,-0.375,-1.375,0.375,0
-0.25,-1.125,-1.0,-1.0,-2.25,-3.375,-1.375,0.25,1
-0.875,-1.75,-1.25,-1.75,-5.375,-14.375,-1.75,-1.625,3
-0.5,0.0,-0.5,-0.875,-2.875,-6.25,-1.0,-3.25,3
-2.0,-0.875,-0.75,-0.125,-2.125,-9.0,-3.5,0.125,3
-2.75,-1.25,-1.375,-0.625,-0.125,2.875,0.25,-2.25,1
1.25,-0.75,-1.25,-1.25,-0.75,-3.125,-3.125,0.875,0
2.375,2.625,-1.0,-1.125,1.0,-3.875,0.625,1.125,2
-2.875,-1.0,-1.0,-2.125,-1.875,0.875,1.625,-4.375,0
-1.125,0.75,-0.125,0.875,0.25,12.375,0.25,2.5,3
-4.125,-1.625,-1.125,-2.375,0.375,2.375,3.375,-4.375,0
-1.375,-0.375,0.5,-0.875,-3.125,-1.625,-0.5,-2.625,3
1.0,-1.125,-1.375,-0.875,6.875,2.875,-0.375,0.625,1
1.75,-2.75,-1.125,-0.75,2.5,-1.25,4.0,-1.625,0
-3.5,-0.625,-0.5,0.125,3.25,-1.375,-0.5,-0.125,1
1.375,0.0,-0.125,0.0,0.375,-0.5,-21.375,0.375,0
-6.0,-1.0,0.25,0.875,-1.125,13.0,4.0,-4.125,3
-0.875,-1.375,0.125,2.25,3.75,0.0,-1.5,-0.625,0
-2.875,-2.0,-1.75,2.0,1.375,-5.375,-7.625,-7.75,0
-1.0,-1.625,-0.625,-3.5,0.25,0.625,-7.75,-3.25,0
-5.625,-1.375,0.0,0.0,-4.25,-5.125,-0.875,-1.0,1
-0.75,-0.5,-1.25,-1.875,-0.875,1.875,-1.125,0.0,1
-0.25,-0.625,-0.75,-1.625,-1.0,0.625,-2.75,-2.0,0
-0.75,-1.625,-0.625,-0.25,-0.625,9.875,1.125,-1.75,3
3.5,5.625,0.25,-0.5,-3.0,-1.375,0.0,2.5,2
0.125,-0.25,-1.0,-0.875,-3.375,-5.125,-1.25,2.125,3
1.375,1.0,0.75,0.0,3.375,-2.875,2.125,-0.875,2
-1.5,-1.25,0.25,-1.375,2.375,-0.75,0.875,-0.625,3
1.25,-2.25,0.5,0.75,0.75,1.0,0.0,-0.5,2
-1.625,-1.5,0.75,1.0,-5.0,-13.125,-2.0,-1.5,1
0.125,-0.625,-1.375,-0.75,4.0,-1.125,-1.75,-2.875,2
2.125,-0.125,-1.0,0.125,1.0,1.0,-0.25,0.25,3
-2.125,-1.0,-1.0,-1.875,0.375,-7.25,-6.625,-4.875,3
-0.75,-1.0,-1.5,-1.25,-5.125,-4.375,-2.5,-1.125,1
0.25,-0.75,-0.75,-0.75,0.5,-2.375,-1.75,-1.375,1
-3.625,-0.625,0.25,-1.125,-1.5,-1.5,0.625,1.625,1
-6.125,-0.5,0.375,0.125,5.75,3.875,-0.75,0.875,1
0.0,10.875,2.375,-1.75,4.875,-4.375,-1.25,-3.0,2
-0.625,-0.875,-0.875,-0.875,2.625,8.25,-1.25,-4.375,1
-0.875,-5.125,-1.625,0.875,0.25,-0.375,-43.625,0.625,0
2.125,3.0,-2.25,-1.375,-1.0,-7.625,-2.125,-3.625,0
0.125,-0.875,-0.875,-0.375,0.75,1.625,-0.625,-1.125,2
4.75,2.75,2.125,-1.0,-0.875,-7.25,-2.375,1.0,2
-4.0,-0.75,-1.0,-0.625,-1.875,1.5,-0.625,-3.125,1
-2.75,-0.375,-0.625,0.25,3.375,5.375,1.0,-0.25,1
-1.375,-0.875,-0.875,-0.625,3.0,1.25,-0.375,0.25,1
1.0,0.0,-1.125,-0.75,-0.625,-2.125,-0.5,-1.0,3
-4.75,2.875,-1.375,-3.0,-0.375,0.125,-11.0,-2.625,0
3.125,-0.75,0.0,0.75,-0.375,-3.625,-6.875,3.0,0
-3.125,-0.875,-0.125,-0.25,5.875,6.875,-0.25,-3.375,1
-3.125,-2.125,-1.125,-1.0,-1.75,0.25,-0.875,-1.5,3
-3.375,-0.125,0.25,2.875,0.125,3.125,-1.25,4.625,0
-1.625,-0.125,-2.0,-1.0,2.125,-1.25,-1.375,-0.75,2
-0.875,-0.25,-0.125,-0.375,0.875,7.0,1.0,0.125,3
-2.125,-1.125,-1.25,-2.125,0.0,-2.125,0.125,1.25,3
-1.75,0.25,-0.75,-1.0,0.75,-5.25,-2.75,0.25,3
-0.5,-1.25,-1.0,-1.75,0.25,5.125,-0.625,-1.875,1
-2.25,-0.375,-0.375,-1.0,3.75,1.5,-1.25,-2.125,1
-3.25,-8.0,-1.875,1.5,-2.125,-9.5,-19.875,1.125,0
-1.75,-0.375,-0.625,0.0,-1.375,-5.625,-1.375,-0.5,1
-2.875,-3.75,-0.25,0.5,0.125,6.0,0.25,0.875,2
-3.75,-1.875,-1.625,-2.875,-4.75,-15.25,-2.125,0.875,3
-2.625,4.0,1.125,1.375,-1.125,-1.25,-11.0,-0.5,0
2.125,-1.25,-1.375,-0.75,8.375,3.0,0.625,-0.875,1
-3.25,0.625,-0.875,-0.5,4.5,-0.75,-2.625,0.25,3
-5.0,0.75,-1.625,-4.5,0.375,3.0,-1.375,-0.625,3
-4.375,-1.25,0.125,-1.375,-1.0,0.0,-10.25,4.0,0
-4.25,-1.75,-1.125,-1.0,0.375,0.75,-0.375,-1.0,1
-1.25,0.875,0.875,-1.125,1.0,-8.875,0.125,2.5,2
4.125,-3.0,-1.125,-2.25,-2.875,-2.625,-1.375,-1.625,0
3.375,4.375,0.625,0.875,0.5,-16.375,-2.5,-4.875,3
-11.125,1.0,1.625,3.625,4.375,1.375,-36.5,-0.125,0
-7.25,-2.125,-2.0,-1.125,-1.5,-6.25,-2.25,-2.125,3
-3.0,-1.375,-0.25,0.25,-3.125,-2.625,-0.75,-1.5,1
-2.125,-0.75,-0.75,-0.375,-4.375,-2.125,-2.375,-1.75,3
-1.125,-0.25,-0.375,0.0,2.5,2.5,-0.25,-0.25,3
2.625,-4.75,-1.625,-1.125,-2.375,2.375,-1.625,-0.375,0
0.5,-0.375,-0.125,-0.125,1.5,-1.625,-0.25,-0.5,3
3.625,3.375,-0.75,-0.875,1.375,2.875,-0.5,-0.125,1
0.125,-2.5,-0.625,0.0,2.75,8.625,-1.75,-1.625,3
-5.875,2.0,-0.25,0.5,0.625,-1.0,-1.375,-4.75,0
3.0,2.75,0.875,-1.25,1.25,-3.75,-1.625,-3.25,2
-0.375,-5.375,-2.0,-2.625,-2.0,-2.5,-1.25,0.625,2
2.25,5.875,0.375,-1.375,7.125,7.0,-1.25,9.625,2
-3.375,-1.5,-1.375,-1.5,-2.875,0.0,0.125,0.375,3
-2.625,-5.875,-1.875,-3.0,-1.875,1.375,-1.75,-2.125,2
0.75,-1.125,-1.5,-1.25,-1.75,-0.5,-2.25,0.5,3
-2.875,-0.5,-0.5,-0.5,0.0,8.75,0.75,0.5,3
-3.0,0.125,-0.25,1.625,-0.25,7.375,7.875,-1.75,0
-2.625,-1.875,-1.0,-0.75,-0.125,-7.0,-1.5,-1.5,3
0.0,-1.875,-1.625,-2.75,-3.125,-11.875,-5.25,-1.5,3
5.375,-1.25,-1.0,-1.625,-5.125,-7.875,-0.5,6.125,2
-3.125,-2.0,-0.875,-0.75,-2.875,-4.875,-0.5,-1.75,1
-3.375,-2.0,-3.125,-3.375,-5.5,-9.25,-33.75,-15.75,0
7.875,-2.0,-1.0,0.875,-3.375,-7.875,1.0,5.625,0
0.375,-0.625,-0.75,-1.25,2.75,-1.875,-0.5,-0.375,1
-0.75,-1.125,-0.625,-0.25,1.375,2.625,-1.125,-4.375,3
0.875,-0.625,-1.0,-1.0,2.0,-2.0,-1.25,-3.375,1
-0.25,-0.625,-1.125,-0.25,-0.75,2.875,5.25,4.0,0
0.75,-0.625,-0.5,0.0,-6.125,-4.625,-2.5,-2.5,1
-3.0,-2.375,-0.375,-0.75,-2.0,-3.25,0.5,0.375,2
-9.0,-1.625,-0.375,-0.375,10.5,1.625,-0.75,-4.625,1
-2.625,1.125,0.625,-0.75,-1.5,-2.375,8.625,-4.75,0
-0.375,0.25,-0.375,-0.75,1.75,-0.625,-0.75,-0.375,2
3.5,1.375,-2.5,-2.0,1.375,-3.625,-6.5,-1.125,3
3.5,-0.5,-1.625,-2.625,-2.375,0.375,-2.125,-1.375,3
3.625,1.75,0.0,0.625,2.125,1.75,-0.375,6.5,3
2.5,0.5,0.375,-0.125,-1.875,8.125,0.75,-0.125,2
0.25,1.75,0.75,-0.25,-1.875,1.25,0.375,0.875,2
5.0,-0.375,-1.625,-1.5,5.75,13.875,4.5,9.5,0
-6.5,-0.375,-1.25,-0.625,-0.875,1.25,-0.75,-1.375,1
1.5,-1.25,-1.5,-0.375,-1.125,-2.25,-1.25,0.5,3
-4.0,-1.5,-0.75,-1.375,2.25,3.25,-1.0,-3.625,3
1.75,-0.75,-0.875,-1.75,-0.5,0.25,-1.25,-2.75,1
-0.25,-0.125,-0.875,0.25,0.375,-0.75,-0.375,-1.5,1
4.375,-0.375,-1.75,-1.875,2.125,-4.875,-3.75,8.125,3
2.25,-1.5,-1.625,-1.125,-1.0,5.25,-0.375,-1.75,1
-5.5,-0.625,-0.75,-0.5,2.375,1.875,-0.25,-1.125,1
4.5,6.75,-0.25,-0.25,5.875,2.875,-0.75,0.125,2
-5.0,-0.5,-0.625,-0.125,1.125,0.25,-0.125,-2.5,0
-1.5,-2.625,-0.375,0.75,3.375,8.0,-1.25,-0.25,3
2.75,-0.375,-1.625,-1.0,-1.625,1.0,-1.0,1.125,3
3.375,-0.75,-1.375,-1.5,0.25,7.25,22.25,14.375,0
-4.5,14.875,0.625,-0.625,-1.25,3.625,1.0,-4.75,2
-3.5,-1.75,2.0,0.5,-0.5,-0.5,-6.5,-0.625,0
-5.25,-0.875,-3.0,-3.75,-0.75,1.875,1.5,-3.75,0
1.625,0.0,-0.625,2.25,0.875,0.625,0.125,-1.125,0
-1.375,-1.75,-2.125,-1.0,3.125,-0.75,-1.75,-4.75,3
0.75,-1.125,-1.0,-1.375,3.875,0.0,-1.75,-1.375,1
-5.75,-2.625,-1.25,-2.0,8.5,7.75,-0.75,-3.625,1
-10.375,4.625,1.375,-0.625,-2.5,0.125,1.375,-6.0,2
-1.625,2.625,-1.0,-0.75,-6.25,-3.375,-2.375,-2.75,2
2.75,-0.25,-1.75,-1.25,2.5,1.5,-1.125,1.875,2
-5.875,-3.375,-1.375,-1.125,2.375,1.875,-0.5,-1.625,1
1.0,2.875,-0.625,-0.375,2.25,2.125,3.625,0.625,0
-1.875,-0.75,-0.375,-1.125,-5.5,-14.5,-0.5,3.375,3
0.0,-0.75,-0.125,0.375,4.0,-3.25,-0.875,-1.625,1
-0.375,-2.875,-0.875,-0.5,-6.375,-1.25,-0.625,2.375,1
1.625,1.0,-0.625,-0.375,-1.375,3.125,-6.5,-2.75,3
-3.875,-0.75,0.125,0.5,-2.625,-3.5,-0.625,-1.0,1
5.0,0.375,-1.0,-1.625,-1.25,-1.375,-0.875,-1.375,1
-1.75,-1.125,-2.375,-0.875,-1.75,-2.5,-2.0,-1.625,2
-3.375,-1.25,-0.75,-1.5,-3.5,-3.625,-14.0,-9.0,0
-2.75,-1.0,-2.125,-1.5,-3.125,-5.5,-2.75,-1.375,3
2.125,-0.375,-0.125,-0.625,-1.125,6.375,0.0,1.5,3
-3.75,-1.5,-0.875,-1.0,3.375,3.375,-1.375,-2.0,3
-0.125,-0.375,0.0,-0.875,1.5,0.5,-0.125,1.25,2
-0.875,-2.125,-2.125,-3.125,-1.125,0.25,-2.375,1.75,0
0.125,-0.625,-1.875,-0.625,-1.25,-9.875,-2.125,-1.375,3
-2.5,1.5,0.0,-2.0,-0.875,4.375,-8.75,3.625,0
-1.75,-1.75,-1.25,-1.0,2.5,-5.75,-26.375,-6.875,0
-1.375,-0.125,-1.25,-2.125,-2.625,7.0,0.625,1.625,2
3.0,-0.25,-0.375,-0.875,1.375,0.75,-0.5,0.125,1
-2.875,-0.875,-0.625,-1.25,-10.0,-3.0,-0.75,-0.5,1
-7.5,-10.75,0.25,-3.75,-3.5,-5.25,-2.875,-4.75,3
-3.0,-4.0,-0.875,-0.25,5.5,3.625,-0.125,-2.25,1
-6.875,-0.625,-1.25,-0.375,3.875,6.25,1.0,0.125,2
-0.375,4.5,-1.0,0.625,1.25,-3.375,0.125,1.625,2
-4.5,-0.625,-1.75,-1.125,0.625,-0.25,-1.375,-2.5,1
-4.0,-0.875,-1.0,-0.625,-1.25,-0.25,0.5,1.25,3
-1.125,-0.375,-1.5,-1.75,-2.5,-3.375,-1.75,-0.75,3
-0.75,-0.125,-1.0,-0.25,-0.625,-1.75,-1.25,-1.375,3
2.75,0.25,-1.25,-1.25,1.75,3.0,-1.0,1.125,0
-0.25,-0.5,-1.375,0.0,4.0,3.75,-1.375,-1.0,1
-0.875,-1.25,-1.125,-1.125,-4.875,10.375,-1.625,0.625,2
-3.875,-2.0,-1.125,-1.5,-7.375,-4.0,-1.375,-1.125,1
0.75,-3.5,-1.625,-4.875,-6.75,1.5,5.875,-1.375,0
0.375,-2.25,-0.875,-0.5,1.875,1.5,1.625,1.0,0
2.625,-0.5,-1.375,-1.375,1.375,-1.0,-1.125,0.25,1
0.0,-0.375,-0.25,0.125,2.75,5.5,-1.25,-1.25,3
8.5,-0.75,-0.25,-0.25,1.5,0.25,-0.25,4.875,0
-1.25,-0.25,-1.125,-0.125,2.25,6.0,-1.75,1.125,2
-2.125,-1.5,-2.375,-1.375,-0.5,6.125,1.0,3.5,2
0.625,11.25,-3.25,-2.125,-2.375,-1.75,-1.875,-1.5,2
2.0,3.5,-1.25,-1.75,-7.0,-4.125,-1.25,-1.625,2
0.625,2.0,0.125,0.0,-1.25,1.125,4.75,0.0,3
-3.125,-1.0,-0.5,-1.25,2.875,3.875,0.25,-2.0,1
-0.25,-0.125,-0.875,-0.875,-1.5,0.0,-0.75,-0.75,1
0.625,0.75,-0.625,0.375,-5.25,-8.0,-3.375,-1.0,2
5.75,-0.75,-0.125,-1.875,2.125,2.875,-1.125,2.5,2
-3.0,-0.75,0.375,0.125,-12.0,-8.0,-0.375,-1.75,1
-1.125,-1.125,-1.25,-0.375,4.625,1.625,-1.75,-4.5,2
-3.375,-1.75,-1.5,-0.75,-2.75,-2.5,-0.25,-4.0,1
-3.875,0.625,-0.625,-2.0,0.75,3.125,-1.625,-0.625,2
-4.375,-1.5,-0.875,0.375,6.75,2.375,-0.125,-1.625,1
-2.875,-1.375,-1.375,-1.75,-1.75,9.25,-1.25,-2.25,3
-12.125,-1.5,-0.5,2.5,-0.75,-5.125,-42.375,-12.75,0
-3.0,-0.625,-0.375,-2.75,-0.75,-3.0,0.0,2.0,0
-2.25,-1.625,-1.125,-0.625,0.75,0.625,-0.75,-0.125,1
-1.0,-6.875,-1.5,-0.375,0.0,-4.0,-0.375,-5.75,2
6.125,0.25,-1.875,-4.125,2.5,8.125,-2.75,9.375,0
-3.375,-1.0,0.375,1.125,1.25,0.0,-0.25,-1.25,1
-3.75,-1.0,0.125,-0.375,1.875,7.875,1.375,-5.125,3
4.875,0.5,0.0,-0.25,-0.375,-1.125,-0.875,-0.75,1
3.0,-0.125,-0.125,-0.875,3.0,2.125,-0.125,-1.0,1
1.25,-0.625,-1.25,-0.75,1.25,5.625,-0.5,1.875,1
-3.625,-2.5,-1.75,-0.375,1.875,0.125,6.375,-0.75,0
-6.125,-1.0,-0.5,-1.625,-3.375,2.125,-1.125,-1.375,1
2.375,-0.5,-1.875,-1.5,0.75,-3.375,-5.75,-5.125,0
5.375,0.125,0.0,0.0,0.5,0.375,-0.5,-0.875,1
-2.25,-1.375,-1.0,-1.5,5.125,2.25,-0.875,-1.25,1
-1.75,-5.375,-2.75,-0.25,-1.625,-4.875,-1.0,1.125,2
0.625,-0.5,-0.75,-0.75,-1.875,0.75,-0.25,1.25,1
0.375,-1.25,-1.125,-0.75,1.5,4.625,0.625,-0.875,3
3.625,-2.0,-0.75,-1.125,0.5,-0.125,-0.75,0.125,0
-3.375,-0.625,-0.875,0.875,0.125,-0.125,-3.25,-4.0,0
-3.25,0.875,-1.25,-1.875,-6.875,-4.375,-1.625,-3.375,2
-1.25,-0.5,-1.5,-2.0,-1.0,-4.0,-8.25,3.0,0
2.125,0.875,-0.125,-0.75,0.5,1.375,-9.875,-3.25,0
2.5,-1.125,-0.625,-0.625,2.75,4.375,-0.125,-5.875,0
4.75,3.0,-0.75,1.25,0.375,1.0,0.375,-1.25,2
-6.125,-1.25,-1.5,-1.125,3.75,7.125,-0.625,-2.875,1
0.125,-0.375,2.375,1.625,0.5,-0.25,-3.75,1.375,0
5.5,1.0,-3.0,-9.5,3.25,7.125,4.5,-1.5,0
-2.5,-0.125,0.25,0.375,-2.5,-13.125,-1.125,-3.375,3
-1.875,-1.0,-1.5,-1.5,-0.375,-9.625,-3.0,-0.25,3
-2.125,0.375,0.25,1.25,-1.5,5.125,2.75,-1.0,3
-2.75,-1.0,-1.875,-1.625,-6.625,-9.875,-2.75,-3.0,3
-1.5,-1.75,-1.5,-2.5,-0.375,4.75,-0.625,-0.25,3
0.125,0.25,-2.0,-7.625,0.625,-4.125,1.125,3.375,3
-2.25,-1.125,-2.0,-1.75,2.25,3.875,-2.0,-3.625,3
-1.75,1.25,1.75,3.375,2.0,1.125,-3.875,-2.25,0
0.25,5.625,-0.25,-1.0,-3.25,9.25,-1.25,-7.0,0
-2.625,-1.25,-0.625,-0.125,-0.25,0.5,-0.125,0.25,1
3.625,-0.75,-0.5,-0.375,0.875,3.5,0.625,0.75,1
2.125,-0.375,-1.0,-1.375,3.625,2.625,0.0,-0.125,1
2.25,-1.25,-1.0,-2.375,-2.75,-0.75,-0.5,1.75,1
-1.875,-0.375,-0.125,0.5,1.375,1.0,1.0,2.75,0
-2.25,-1.0,0.5,0.875,2.375,-5.875,-1.125,-1.125,3
-1.375,-0.125,-2.625,-1.125,-5.5,-8.375,-2.125,-4.5,2
0.5,-5.0,-2.5,-1.875,1.375,-10.25,-1.75,-1.25,2
-5.375,-3.0,-0.75,-1.625,-10.75,-9.125,-1.125,-3.875,2
-1.875,2.75,0.125,0.0,3.75,-0.625,-6.875,-3.375,0
-0.5,-1.375,-1.0,-0.625,-2.125,-0.375,-0.375,-0.125,0
-1.875,-1.375,-0.875,0.625,-1.0,-3.625,-3.125,-2.0,0
-1.25,-1.0,-2.25,-4.0,-3.125,0.0,-1.875,1.375,0
-5.5,-8.75,-1.25,-0.375,-5.125,-7.25,-2.625,-5.25,2
-4.375,-4.875,-0.75,-1.75,-1.25,-7.125,-1.625,-5.875,2
-0.625,1.875,-2.125,-2.25,-8.5,-7.125,-0.5,-4.5,2
-15.5,-5.875,-4.375,-0.75,1.5,-1.875,4.875,0.25,0
6.875,-2.0,-1.125,-2.375,-1.375,-1.5,-24.5,-4.375,0
-2.75,0.5,0.125,0.625,-0.625,-5.375,0.375,-0.375,2
-3.125,-0.75,-0.125,-0.25,2.375,7.125,-1.75,-1.375,3
2.75,-7.875,-1.625,3.125,1.5,4.0,7.875,3.0,0
-1.625,-4.375,-2.75,-1.25,0.875,1.125,6.0,-3.625,0
0.625,-0.875,-1.0,-0.875,-1.375,-1.0,-0.75,0.5,1
-2.625,-1.625,-0.5,-0.875,-3.375,-6.25,-2.125,-0.25,3
2.5,-1.25,-1.375,-0.875,4.0,2.375,0.25,3.125,1
-0.375,0.375,-0.375,-2.875,0.0,2.625,-17.625,5.25,0
-5.625,-0.5,-0.25,-0.5,-0.125,-5.0,-1.25,2.0,1
-5.75,-5.5,-4.75,-3.5,-2.125,-14.625,-0.25,-5.125,2
0.875,-7.25,-3.125,-1.25,-2.625,-2.125,-1.375,-2.125,2
2.375,-1.25,-1.625,-1.375,2.875,3.875,-0.5,0.0,1
0.75,0.0,-1.375,-1.625,3.5,5.875,-0.875,0.25,1
-2.25,2.0,-2.0,-1.5,-0.75,-5.75,-0.75,1.0,2
-0.25,-0.375,-0.5,-1.375,0.125,-6.75,-1.875,0.5,3
-7.625,-3.25,-0.75,-2.375,-1.25,0.375,-5.25,-0.625,0
10.625,0.75,-0.5,-2.125,0.0,-2.125,-2.25,2.0,0
-3.125,-1.75,-1.625,-1.625,-1.125,0.0,2.125,-2.125,0
1.125,-0.875,-1.0,-1.625,-2.625,-2.25,-0.875,-1.25,3
-1.375,-1.5,-0.75,0.25,-1.0,0.625,-8.0,-5.375,0
2.25,3.75,-0.375,-1.5,-5.125,-13.5,-2.0,-3.875,2
-6.75,2.125,1.75,-0.5,-3.125,-2.125,-1.125,1.0,2
-2.0,-2.75,-0.375,-2.25,0.0,1.0,8.75,-0.25,0
-3.0,0.125,0.875,0.25,2.625,0.0,2.375,-2.625,3
-0.375,-0.375,-0.625,0.125,-2.125,-2.125,-0.75,-0.125,1
2.75,1.0,-1.0,0.125,4.5,1.875,-0.375,3.25,2
5.375,-0.25,-1.125,-0.625,6.0,12.125,-0.875,-0.375,1
-1.625,-0.5,0.125,0.5,-7.0,-4.5,0.25,1.25,1
-1.625,0.375,-0.75,-0.375,2.625,-0.75,-0.875,-4.0,1
2.125,0.5,-0.875,-0.625,0.125,-2.75,-1.125,-1.75,1
2.625,-1.875,-0.25,-0.75,0.25,3.0,0.875,-2.125,3
3.75,0.0,0.375,3.625,0.875,-2.375,-0.375,1.375,0
-3.625,-1.125,0.0,-0.25,2.0,5.375,0.125,0.625,3
-3.375,0.5,1.0,1.0,3.375,9.375,6.625,7.875,0
-1.125,-0.75,-1.25,-3.125,0.125,3.625,-0.125,-0.25,1
-2.5,3.625,1.75,1.375,1.625,-1.75,-2.25,-1.75,2
-0.625,-0.125,-0.5,0.25,1.5,-0.75,2.5,-0.5,0
-3.75,-1.375,-1.5,0.375,1.75,-1.25,-2.25,-0.25,0
-1.5,-5.875,-1.75,0.875,1.875,-0.375,10.5,2.625,0
-1.625,-0.75,-1.375,-2.375,-5.25,-5.375,-1.875,-1.375,2
-1.0,-1.5,-0.625,-1.375,0.125,4.125,-0.25,2.875,1
0.875,-0.5,-0.5,-0.25,2.375,-1.75,-1.5,-3.25,1
-2.125,-0.625,-1.0,0.0,3.625,2.875,-1.125,0.375,1
2.0,-3.625,-1.5,-0.375,0.375,3.75,-0.75,5.875,2
-0.25,-0.5,-0.125,-0.75,1.875,-0.625,-1.25,-3.5,1
-2.875,-2.25,-1.5,-1.25,-1.625,2.375,-0.875,-4.25,1
4.25,5.625,1.625,4.375,1.875,-0.75,-5.25,3.875,0
3.25,0.5,0.25,0.5,-0.625,5.25,1.75,3.75,3
-3.75,-0.5,-1.125,0.0,1.875,2.125,0.25,-1.5,3
-3.125,3.5,-2.0,-2.125,-9.125,-15.75,-3.125,-6.0,2
-3.5,-2.375,-0.875,0.0,-1.5,-0.5,-2.25,-1.375,0
-2.125,-1.0,-0.75,-2.125,-1.625,-12.875,-3.0,-3.125,2
0.375,-0.625,-0.875,-1.0,0.125,-6.125,-0.125,1.625,3
2.125,1.0,-0.375,-0.125,4.25,3.0,1.375,2.875,2
-0.625,-2.25,-1.125,-0.625,-1.5,5.625,-8.875,-3.875,0
-2.625,0.625,0.25,-0.375,3.5,6.75,0.625,-1.125,3
-0.125,-0.875,-0.875,0.0,4.75,1.5,-0.625,0.0,1
-0.875,-0.375,-0.375,-0.375,9.375,1.25,-1.5,-5.25,3
0.625,-0.125,-1.125,-0.5,-2.625,0.375,-0.5,-1.25,1
-1.75,3.875,2.0,1.5,1.875,-0.75,-0.625,2.875,2
0.875,-0.125,-0.375,-0.125,-9.625,-5.25,-0.5,0.625,1
1.5,-0.75,-1.125,-2.25,-5.375,-1.625,-1.125,-1.75,1
-0.625,-0.625,-0.375,-0.375,1.375,-2.375,-1.0,-2.75,1
1.375,-0.875,-0.5,-0.625,-0.5,-2.875,-1.0,2.25,3
1.5,0.375,0.25,0.75,-9.5,-5.875,-0.75,0.125,1
6.625,-0.375,-1.0,-2.875,-0.875,0.5,2.625,-1.5,0
0.125,-1.375,-1.25,-0.5,-0.75,2.25,4.0,-2.5,0
-2.25,-6.625,-0.25,0.375,0.625,-4.875,0.5,2.0,2
-1.25,-1.625,-0.5,-0.125,-1.0,0.0,-0.125,-1.125,1
-5.875,-3.5,-0.5,0.25,-1.375,-2.625,-3.875,-3.0,3
0.25,-8.125,-2.25,-1.5,3.125,2.125,-2.125,0.0,2
2.625,2.25,1.0,-0.625,-1.25,-9.375,-1.5,-0.75,2
1.0,-0.875,-0.625,-1.625,-2.875,-6.375,4.625,-0.875,3
-0.375,-1.125,-0.875,0.0,-1.125,-10.25,-1.75,-3.75,2
1.75,0.5,-0.625,-0.75,-5.875,1.0,-0.375,-0.875,1
0.375,-0.25,-0.375,0.125,-2.0,1.375,-1.375,-2.125,1
-6.0,-1.125,0.875,-0.5,-2.875,-3.625,-0.5,0.5,2
2.875,-2.875,0.375,1.625,3.75,-2.5,-9.75,2.125,0
-0.625,-0.625,-0.875,-0.5,1.25,1.25,-0.125,4.25,0
-3.25,-2.125,-1.0,-2.25,-1.5,4.375,-0.25,0.125,3
-1.625,-1.125,-0.5,-0.625,0.75,-2.625,-0.75,-3.25,3
-1.625,-1.0,-1.375,-0.75,-2.625,2.125,-1.5,-2.625,3
2.375,-2.375,-1.25,-3.75,1.5,-2.375,7.25,1.625,0
-4.5,-0.125,-0.5,-1.0,-0.25,-5.0,-2.625,-4.375,3
-3.875,-0.625,-0.75,-1.0,0.875,-2.125,-1.5,-4.25,2
-3.0,-1.0,-0.875,-1.125,-2.0,-1.25,-2.0,-1.5,1
-0.5,-1.375,-1.0,-0.625,0.625,-2.5,-1.0,0.375,3
-11.25,-1.5,-1.25,-2.375,-1.875,-1.375,-12.0,-2.75,0
1.75,-2.0,-2.125,-4.375,0.125,-8.25,-1.25,0.625,3
-0.125,1.0,-0.125,-1.5,-0.75,-0.125,2.625,1.625,0
-3.5,-1.625,-0.5,1.375,5.0,0.125,-2.125,-2.375,1
0.625,0.125,-0.625,-0.125,3.0,2.375,8.5,2.375,0
-1.625,9.875,0.375,1.25,3.125,-0.875,0.25,-0.75,2
1.0,-1.125,0.375,0.875,1.5,-1.625,-43.125,-2.625,0
-2.0,12.25,0.125,-1.375,-2.125,1.25,-0.875,-3.875,2
-2.375,-1.875,1.5,0.75,-0.5,3.0,0.125,3.875,2
-1.75,-0.875,-0.75,0.0,-1.25,-15.0,-2.5,0.25,3
-1.625,-0.625,-0.625,-0.75,0.625,1.625,-0.375,1.25,1
-1.0,1.125,-3.125,-2.125,-0.375,-5.625,-41.625,-7.75,0
-5.25,-29.875,-0.75,4.125,13.375,-1.125,6.0,8.0,0
0.375,-4.625,-0.5,-1.125,2.375,-1.125,-0.625,-0.875,1
0.75,0.0,-0.625,-0.625,-3.125,-3.125,-0.375,0.125,1
-2.0,-1.0,-1.0,-1.0,-1.375,-3.625,-0.625,-1.125,1
-2.25,-0.625,0.125,-0.25,-2.25,-4.625,-0.875,0.625,1
4.25,0.25,-0.625,-1.0,-5.625,-5.5,-0.625,1.875,1
-0.625,-1.0,-1.375,-1.5,8.375,6.375,0.375,-1.375,1
0.5,-0.875,-1.0,-0.375,2.0,1.75,-0.125,-1.25,1
1.125,-0.75,-0.25,-1.375,-6.25,-1.625,-1.5,-0.375,1
-0.625,-0.375,-1.375,-1.875,0.25,2.75,-1.25,-2.625,3
-3.625,-1.25,-1.625,-1.125,0.375,-5.5,-18.0,-8.0,0
